Date,High,Low,Open,Close,Volume,Adj Close,Signal,MACD-1,SIGNAL LINE1,MACD-2,SIGNAL LINE2,plusDI,minusDI,adx,storsi,%K,%D,AO,%R,RSI-7,RSI-14,RSI,MA,MA-26,Trend,Trading Signal,AO-signal,MACD-SL-1,MACD-SL-2,DMI,STOCHRSI,MA-trend,MACD-SL-1_n,MACD-SL-2_n,MACD-1_n,MACD-2_n,SIGNAL LINE1_n,SIGNAL LINE2_n,plusDI_n,minusDI_n,DMI_n,%K_n,%D_n,STOCHRSI_n,Close_n,%R_n,RSI_n,AO_n,MA-trend_n
12/30/2004,17.875,17.64999962,17.76250076,17.72500038,2900400,15.640625,wait or hold,0.05494884759167462,0.1301176743627257,0.10330380816143503,0.08418688914127713,19.889997415493536,24.274108500858503,13.370188456796756,0.1342931924220186,0.20790451644454258,0.23408292971090508,-0.005485197264707864,-68.97270373099121,42.330299206823284,48.07979616169368,48.07979616169368,17.975333276666664,18.096923241153846,0.1,0.45218302356061874,0,-0.07516882677105108,0.0191169190201579,-4.384111085364967,-0.0261784132663625,0.37192286115384476,-0.036633808117422006,0.19590207039862917,0.08888409740313263,0.0527044667452341,0.06957679691640362,0.017523578973684062,-0.23306581981145302,0.08129411091456085,-0.2487743962340685,-0.5841909671109151,-0.5458285891721513,-0.05865098769694099,-0.9681963037326358,-0.3794540746198243,-0.11484923842033834,-0.0027510579209476527,0.010309126564918447
12/31/2004,17.91500092,17.72999954,17.77499962,17.84000015,2445600,15.74210453,wait or hold,0.04403633200827528,0.11290139724636979,0.10047794531188714,0.08513857864510499,19.930358285686097,23.43173977270915,12.991942930828577,0.2788964764104299,0.21792715937137933,0.22600504454108344,-0.10477932652941035,-65.96739471095489,46.91835414542708,49.83713628212748,49.83713628212748,17.97616666066666,18.07105783307692,0.1,0.5,0,-0.0688650652380945,0.01533936666678215,-3.5013814870230533,-0.008077885169704119,0.23105768307691932,-0.03189955333051275,0.19296204595115296,0.08637239423226895,0.0517585714371922,0.06490229942516934,0.01789519648950577,-0.23150955360154812,0.043770658923140804,-0.2272816179913797,-0.5641456812572416,-0.5621447207946246,0.007219539391517982,-0.9659386396218587,-0.3193478942190978,-0.06320993092952076,-0.010972046633573762,0.001026589265002098
1/3/2005,17.84000015,16.53750038,17.84000015,16.63750076,12024400,14.68101788,buy,-0.06038605340156167,0.07824389319366806,0.08116037823928224,0.08490647642279092,15.865687721538333,37.32497746212224,14.945667709033753,0.0,0.13772988961081667,0.1818674670757895,-0.24849249817646424,-95.0248572857128,23.809838666787684,36.08388674738539,36.08388674738539,17.923666761999996,17.985288619615382,0.1,0.5,0,-0.13862994659522973,-0.0037460981835086837,-21.45928974058391,-0.04413757746497282,1.34778785961538,-0.0842944165873819,0.17810805373549088,0.062337786030469244,0.04529244161079782,0.05549222693087308,0.017804564775143028,-0.3882383214204369,0.6626471912813647,-0.6645223545898987,-0.7245402207783669,-0.651296090030633,-0.12400707043184434,-0.9895459887151163,-0.900497145714256,-0.4673481358588971,-0.022870679218552903,0.07461531899350549
1/4/2005,16.85000038,16.32500076,16.67749977,16.375,11683200,14.449388500000001,buy,-0.1623318071785036,0.03012873765561895,0.05966741448999002,0.08343570656282494,14.575372211507398,37.58125399465973,17.028778694506364,0.0,0.09296549213681048,0.13741647960621914,-0.47057334670587636,-97.75031525873902,21.156104200134422,33.885535992104835,33.885535992104835,17.822666802666664,17.88596167884615,0.1,0.28645791146128724,0,-0.19246054483412256,-0.023768292072834915,-23.005881783152333,-0.04445098746940866,1.5109616788461508,-0.12472230493028658,0.1625250163557126,0.03887321720023906,0.038098145691721985,0.04242818455208863,0.017230255780972703,-0.4379913227506076,0.6740630711019808,-0.7021789142716721,-0.8140690157263791,-0.7410805010559303,-0.12514761628093463,-0.994699377673231,-0.9550063051747805,-0.531946507741843,-0.04125770937401785,0.08536792005543914
1/5/2005,16.47500038,16.02499962,16.375,16.23749924,7855200,14.32805061,buy,-0.25126136511413577,-0.026149297367982473,0.03792961768830594,0.08078689999619233,13.557582158410838,39.61228184921358,19.312634346048338,0.0,4.996003610813204e-16,0.06870823980304733,-0.7671983551470554,-91.57583601186222,19.807012963112356,32.759680751780905,32.759680751780905,17.704333367999993,17.78644238961538,0.1,0.0,0,-0.2251120677461533,-0.042857282307886393,-26.054699690802742,-0.06870823980304683,1.5489431496153827,-0.149244271352715,0.14766828037466628,0.01840454973824479,0.03082189730437701,0.027147788462303257,0.016195944787497973,-0.4772360729468861,0.7645355371929534,-0.7764118020263742,-0.999999999999999,-0.8798609690384629,-0.21342338306530173,-0.9973987789942648,-0.8315167202372444,-0.5650296794450442,-0.06581657165858201,0.08787077011344668
1/6/2005,16.75,16.04750061,16.23749924,16.47750092,8714800,14.53983307,buy,-0.2990081583682276,-0.08072108079279629,0.021253085721244958,0.0773252574857657,16.24595852317011,35.45050867245397,20.5866369133634,0.15295856428035223,0.05098618809345124,0.059847213948245256,-1.0245070627647053,-82.0614024813524,29.023702099176916,36.71226909444579,36.71226909444579,17.581833393999993,17.698365504999998,0.1,0.20873827071403742,0,-0.2182870775754313,-0.05607217176452074,-19.20455014928386,-0.008861025854794015,1.2208645849999975,-0.14411856312003157,0.13738328775544328,0.0074148039643819885,0.025239795772245888,0.012330667258489747,0.014844236078709327,-0.373575540455371,0.5791486741972147,-0.6096237558323073,-0.8980276238130975,-0.8977589288531457,0.0043695733885475985,-0.9926870897494757,-0.641228049627048,-0.448883167771989,-0.08712026802663175,0.06625150582882533
1/7/2005,16.48749924,16.14749908,16.48749924,16.37000084,4044400,14.44497204,buy,-0.34154368354221276,-0.13288560992637663,0.0043990713404689075,0.07308915317698668,15.402511257759649,33.61001187723277,21.769639297298813,0.113785157039762,0.0889145737733719,0.07438089386081188,-1.3010954863235291,-86.32304917351091,27.379320850525772,35.69999264212615,35.69999264212615,17.475666808666656,17.625096321153844,0.1,0.0,0,-0.20865807361583613,-0.06869008183651777,-18.207500619473123,0.014533679912560021,1.2550954811538446,-0.13688698276113742,0.12756291715102952,-0.0023754788203111943,0.019598285913762448,-0.0018328454985562237,0.013190114063432734,-0.4060978441800541,0.4971634451306388,-0.5853475057989433,-0.8221708524532563,-0.868403048022078,0.08950640430010082,-0.9947975206879173,-0.7264609834702183,-0.4786288353176341,-0.11002021513285443,0.06850720574484104
1/10/2005,16.86249924,16.53249931,16.54999924,16.62750053,4525600,14.67218876,buy,-0.3505123361737077,-0.1764109609055359,-0.007473419876088627,0.06841388651941076,19.953185826342754,31.091925633156585,21.773333951248983,0.2790202853078147,0.18192133554264345,0.12815111470173376,-1.369419188000002,-76.11493861098546,37.30573194353242,39.9698185578165,39.9698185578165,17.364333469999995,17.58692323230769,0.1,0.0,0,-0.1741013752681718,-0.07588730639549938,-11.138739806813831,0.05377022084090968,0.9594227023076911,-0.11093419033444218,0.1219614021545603,-0.004439768495843821,0.015624231143798184,-0.013650681757934713,0.011364507104331789,-0.23062935131627293,0.3849948838671735,-0.41323669306255273,-0.6361573289147133,-0.7597951658640667,0.2322940411180252,-0.9897423122414202,-0.5222987722197092,-0.353160321380692,-0.11567702872744012,0.04902337279422686
1/11/2005,16.82500076,16.51499939,16.71249962,16.73749924,4511600,14.76925564,buy,-0.34479907992642467,-0.21008858825638174,-0.01681849566835325,0.06347201572790226,18.98881667641441,29.86204065854213,21.807952977616175,0.44432170511742713,0.2790423824883351,0.2035967485950387,-1.308103129647062,-71.50001520000004,41.30422601051968,41.74930952857723,41.74930952857723,17.25600013666666,17.53682701384615,0.1,0.0,1,-0.13471049167004293,-0.08029051139625551,-10.873223982127723,0.07544563389329637,0.7993277738461515,-0.08135082518649706,0.11853443963002963,-0.003124764295154514,0.012496172983929243,-0.02279470189064392,0.009434796059222483,-0.2678142562687138,0.3302094576544714,-0.4067718903068478,-0.4419152350233302,-0.607406159699069,0.31117410887054353,-0.9875828284459415,-0.43000030400000067,-0.30087011281619225,-0.11060040811195082,0.03847366018775045
1/12/2005,16.99500084,16.52499962,16.75749969,16.95000076,6363200,14.97018337,buy,-0.3194971266702282,-0.23197029778268138,-0.02237306037358522,0.05849878922082248,20.24548599111657,27.677882987977814,21.358022056693233,0.6115662305799426,0.44496940700172855,0.32428307779838705,-1.1546692679117676,-58.42692215630083,48.68102324764354,45.13304293962482,45.13304293962482,17.154666899999995,17.49971162307692,0.1,0.0,1,-0.08752682888754684,-0.0808718495944077,-7.432396996861243,0.12068632920334149,0.5497108630769176,-0.04591492231737715,0.11808199096620342,0.0026989154729926135,0.010636904869153474,-0.02873593968516297,0.0074928411750454504,-0.2193586114284356,0.23291579900552306,-0.322994330899412,-0.11006118599654346,-0.363637649635135,0.47581176087757027,-0.9834110196224144,-0.16853844312601662,-0.201439360596806,-0.0978969577186467,0.02202475268244819
1/13/2005,17.32749939,16.95000076,17.03750038,17.13500023,5078800,15.1335783,buy,-0.2813199746690138,-0.24184023382518025,-0.024816856716519453,0.05367590784888745,24.281669035223807,26.031022502575112,20.080803524005375,0.8904814317249472,0.6487897891407727,0.4865364334695822,-0.9633972672941162,-46.50601429177312,54.4902780733071,47.96683780266302,47.96683780266302,17.097000248666664,17.487403942692307,0.9,0.5,1,-0.03947974084383357,-0.07849276456540691,-1.7493534673513054,0.16225335567119048,0.35240371269230764,-0.009830569288034163,0.11993360478742154,0.011486043702332083,0.009818897903613122,-0.031415786841286875,0.005609593343340213,-0.06372828783613427,0.1595561308512483,-0.1846230849904319,0.29757957828154447,-0.0359099026241384,0.6270803828932243,-0.9797791283244424,0.06987971416453753,-0.11816851131908856,-0.08206072480373561,0.009022880906975228
1/14/2005,17.52750015,17.06999969,17.13750076,17.48749924,3964400,15.44490337,buy,-0.2201645990041925,-0.23750510662723306,-0.02200538858766876,0.04929821205044328,25.68213587296168,24.15518526977576,18.865308253929527,1.0,0.8340158874349637,0.6602761604522741,-0.7179926933823495,-23.228394211237894,63.639875865343576,52.95294984352309,52.95294984352309,17.056166839333326,17.480961579230765,0.9,0.5,1,0.01734050762304057,-0.07130360063811204,1.5269506031859201,0.17373972698268958,-0.0065376607692329,0.032842607971497184,0.12552884628930894,0.025562005362937734,0.010759974896155322,-0.030238729741541737,0.003900182415619957,-0.00972798488762372,0.07599665624527185,-0.1048513440451374,0.6680317748699263,0.31501861318252544,0.6688810048740761,-0.9728589026234566,0.535432115775242,0.028348016624336614,-0.061742622947208003,-0.0146301377675222
1/18/2005,18.0,17.70000076,17.70000076,17.90500069,7349200,15.81363678,buy,-0.13652671556059204,-0.21730942754274582,-0.013424129480384295,0.04567265320080396,31.001915235933563,22.2232230415923,18.69589391713467,1.0,0.9634938105749828,0.811884985513629,-0.4584116045882354,-4.810090720083738,71.54492298478158,58.07705849783378,58.07705849783378,17.076500193333327,17.483942398461537,0.9,1.0,1,0.08078271198215378,-0.05909678268118825,8.778692194341264,0.15160882506135387,-0.42105829153846486,0.08048901053747981,0.13502926874862275,0.04481270291696382,0.01363236225492992,-0.02475527646205633,0.002484467344949781,0.19539625617168843,-0.010062915407803241,0.07171470085099663,0.9269876211499644,0.6212459849296541,0.5883433450490845,-0.9646625554493501,0.9037981855983253,0.17891956469267023,-0.040250786352330814,-0.041945640926145056
1/19/2005,18.05500031,17.71249962,17.90250015,17.72500038,3413600,15.65466022,buy,-0.08376751718482112,-0.19060104454948845,-0.008094496621794178,0.04256678533331778,30.188550997743814,21.013625575377663,18.640402527115263,0.8895801593527607,0.9631933864509207,0.887539185982275,-0.1934189965882318,-16.256148661703133,64.49232404219237,55.28151768150866,55.28151768150866,17.069833501333324,17.49548090384615,0.9,0.5,1,0.10683352736466734,-0.05066128195511196,9.174925422366151,0.07565420046864568,-0.22951947615385038,0.10005370961163873,0.141594519482793,0.05695613994941473,0.015416339391447043,-0.01750351881125145,0.0012716821910288,0.1640339174956249,-0.06394463125944005,0.08136222249105485,0.92638677290184,0.7740562646859164,0.3119331138110586,-0.9681963037326358,0.6748770267659372,0.09677280770534957,-0.018310906770026114,-0.029323882856038153
1/20/2005,17.90500069,17.40500069,17.625,17.78000069,5607200,15.70323944,wait or hold,-0.037100835142148014,-0.15990100182048472,-0.002392299072166537,0.03997133190132565,27.808912098153442,24.204982532148684,17.803858230852732,0.9171212470953897,0.9355671354827173,0.9115531607324961,0.010801657764709205,-13.546774705776032,65.69772616153075,55.978785803425986,55.978785803425986,17.067333603333324,17.49125018461538,0.9,0.5,1,0.12280016667833671,-0.04236363097349219,3.6039295660047586,0.024013974750221156,-0.28875050538461977,0.11204498469499957,0.1480524833865322,0.06769727954866345,0.01732502434711769,-0.009167961027903293,0.00025820463038739305,0.07227792726203686,0.0782148833962959,-0.05428087677356841,0.8711342709654333,0.8225609369567168,0.12400661416005643,-0.9671165430864308,0.7290645058844794,0.11726197911420888,-0.0014025990306534286,-0.03322700671995582
1/21/2005,18.12000084,17.85250092,18.11249924,17.91250038,5141200,15.82026291,wait or hold,0.010430602384268184,-0.1258346802271594,0.004763212226244207,0.0379399853097216,29.742290597802405,22.884007351549027,17.463014485065603,0.9847245835686789,0.9304753300056102,0.9210142453690533,0.17519149876471118,-9.904550795440516,68.68552498877574,57.690325009813755,57.690325009813755,17.079833603333324,17.487404016153842,0.9,0.5,1,0.1362652826114276,-0.03317677308347739,6.858283246253379,0.009461084636556927,-0.42509636384615845,0.1221575641809538,0.1552025065405449,0.07863745749740536,0.019720174049761674,8.15958738209499e-05,-0.000534999425250593,0.1468266576438424,0.019371829143811636,0.024956414129833737,0.8609506600112191,0.8416709266354676,0.07104647192948477,-0.9645153222770145,0.8019089840911897,0.16755543018469976,0.012207944083417965,-0.042211736190621574
1/24/2005,18.14249992,18.02000046,18.03750038,18.03249931,5111200,15.92623901,wait or hold,0.057104179465142124,-0.08924690764224913,0.013068826406204437,0.03650582625357073,28.97906640258797,22.008978616734716,17.192087965386904,1.0,0.9672819435546899,0.9441480944618716,0.3224268311470624,-5.194833266375461,71.32457492649785,59.23610507804272,59.23610507804272,17.09266688066666,17.47653858461538,0.9,0.6067931188577316,1,0.14635108710739125,-0.023436999847366295,6.970087785853256,0.023133849092818237,-0.5559607253846188,0.1297322111540684,0.16278285718782315,0.08938018410829951,0.022500295344214383,0.010015767472135728,-0.0010950125635650343,0.11739765822120374,-0.019606468156057155,0.027678640937068844,0.9345638871093784,0.8883978754342696,0.12080370534725171,-0.9621595151515512,0.8961033346724907,0.21297806142625375,0.024398191528846258,-0.050835253611989706
1/25/2005,18.22249985,17.87000084,18.09749985,17.97750092,3914800,15.87766933,wait or hold,0.08864062787651861,-0.05366940003561547,0.019887383513427892,0.035548046721647596,27.258737106983737,23.228577306128745,16.534261658145375,0.9603693994525052,0.9816979943403951,0.9629230444011333,0.35928708444118485,-11.148983133439664,68.24905525268632,58.18682848164267,58.18682848164267,17.182000224666655,17.4771155576923,0.9,0.5,1,0.14231002791213407,-0.015660663208219704,4.030159800854992,0.018774949939261765,-0.5003853623076999,0.12669729244096217,0.16883508828674199,0.09663884017777002,0.024782657057689006,0.019675635800671554,-0.0014690081250652298,0.05106384678738074,0.034720753808623606,-0.04390298536132542,0.9633959886807888,0.9263204935421354,0.10494101983681015,-0.963239238104506,0.7770203373312068,0.1821451474249247,0.027450010689953785,-0.047173025744459696
1/26/2005,18.27000046,17.95000076,18.08749962,18.23500061,4766800,16.105093,wait or hold,0.13284431498233928,-0.016366656610211774,0.029868733217846,0.03522088835976089,26.577745299313083,21.954413158226153,16.033694900714696,1.0,0.9867897998175023,0.9748564221093177,0.3905666140294173,-1.5747965067353509,74.30183594469649,61.61510081069507,61.61510081069507,17.30600026533332,17.474711711538454,0.9,0.5,1,0.14921097159255106,-0.005352155141914887,4.62333214108693,0.01193337770818459,-0.7602888984615461,0.13188004332428793,0.17685807854519764,0.10681307912561211,0.028123693886438428,0.02980393353773314,-0.0015967575404320922,0.024805628507061916,-0.022037095379403904,-0.029460372819218872,0.9735795996350032,0.9504241490527181,0.08004351593149517,-0.9581840296580089,0.9685040698652929,0.2828846724057219,0.030039777694160108,-0.06429978696156291
1/27/2005,18.59749985,18.17499924,18.23749924,18.39249992,3816000,16.24419594,wait or hold,0.1785062574649494,0.022607926557394548,0.041295602003572185,0.03557066211338193,30.263107446888863,20.36597460232957,16.28473925051367,1.0,0.9867897998175023,0.98082311096341,0.5082869934117724,-8.367341451896756,77.37905095629729,63.581926189439905,63.581926189439905,17.449666977333322,17.475865583846147,0.9,0.5,1,0.15589833090755487,0.005724939890190253,9.897132844559295,0.005966688854092239,-0.9166343361538516,0.13690238794873455,0.18547925097509177,0.11732296063229586,0.03194858636901521,0.04038616278553042,-0.001460177224165693,0.1669087237617275,-0.09279434918256058,0.09894659260799377,0.9735795996350032,0.9624759768080096,0.05832984339702052,-0.9550920187812988,0.832653170962065,0.34067968848301766,0.03978635503277039,-0.07460242084783131
1/28/2005,18.52000046,18.26499939,18.39500046,18.5,5884000,16.33913994,wait or hold,0.22080896470828648,0.06224813447444934,0.053309665187573074,0.036591604885956384,28.903844300374033,19.45123976327227,16.51785186104129,1.0,1.0000000000000004,0.9904115554817052,0.5699779800588303,-4.681864512049061,79.34824962550704,64.90377158449297,64.90377158449297,17.58450024933332,17.477019456538457,0.9,0.5,1,0.15856083023383716,0.01671806030161669,9.452604537101763,0.009588444518295214,-1.0229805434615429,0.13890197979793362,0.19403506694803507,0.12705965636548178,0.035970029234893675,0.05114911991081095,-0.001061517561098957,0.1144971851799872,-0.13354136135341144,0.08812317810741677,0.9999999999999996,0.9818432145845206,0.0715099535746182,-0.9529815878428571,0.9063627097590188,0.37952201616720926,0.04489401757688927,-0.08161027509197383
1/31/2005,18.70000076,18.31749916,18.5,18.5625,6724800,16.39432907,wait or hold,0.25641371650100453,0.10108125110458875,0.06519013640284754,0.0382368764598942,30.131960343888544,18.135427988956376,17.1133140489996,1.0,1.0000000000000007,0.995205777740853,0.6331985031764766,-6.292937015412565,80.49968197272582,65.68363909965947,65.68363909965947,17.73066685999999,17.49865407192307,0.9,0.5,1,0.15533246539641576,0.02695325994295334,11.996532354932167,0.004794222259147718,-1.0638459280769297,0.13647741129140822,0.20200100212387384,0.135254702438234,0.039946755133552614,0.06169293870726533,-0.0004190688079086513,0.16185185050917994,-0.19215441083325102,0.1500629573520884,1.0,0.9915268334727763,0.0540630622185827,-0.9517545940243167,0.8741412596917488,0.40243836454480264,0.05012831703452347,-0.08430316528773685
2/1/2005,19.02499962,18.68250084,18.6875,18.98749924,5659200,16.76970291,wait or hold,0.31524706190689855,0.14391441346344036,0.08225585806392033,0.04076830562638367,33.381358365098535,16.66726699647436,18.27634198639024,1.0,1.0000000000000007,0.9976028888704268,0.7602499406176548,-1.5000152000000355,86.47989399237366,70.4862518451649,70.4862518451649,17.88800010733332,17.532788643461533,0.9,0.5,1,0.1713326484434582,0.04148755243753666,16.714091368624175,0.002397111129573859,-1.4547105965384652,0.14849387840963013,0.21331287056764436,0.14879620889283185,0.04565912933817473,0.0733228345688901,0.0005694084365550633,0.28714469773507956,-0.2575538810131398,0.2649265009769237,1.0,0.9963686429169041,0.0453396165405644,-0.9434110509784869,0.9699996959999992,0.543562779472093,0.06064745286724138,-0.11005982079157095
2/2/2005,19.15500069,18.92250061,19.0,19.15500069,4852000,16.91762924,wait or hold,0.37109423396859853,0.189350377732828,0.10028835209424969,0.04418991669507767,34.32745157868054,15.96746024937074,19.57836537896452,1.0,1.0000000000000007,0.9988014444352138,0.9136102236176562,-0.0,88.15076325929537,72.14109013679948,72.14109013679948,18.049166870666657,17.592596347692304,0.9,0.5,1,0.18174385623577052,0.05609843539917202,18.3599913293098,0.001198555564786874,-1.5624043423076976,0.15631290996254865,0.22468434846868046,0.1616503961862299,0.05169510928614396,0.085659433216416,0.0019054855923303915,0.32362490474482275,-0.2887268863737551,0.30500101862209306,1.0,0.9987895476389681,0.040977893701555246,-0.940122679078542,1.0,0.592190078419893,0.07334481136007964,-0.11715647324832423
2/3/2005,19.67499924,18.97999954,19.625,19.31999969,8987600,17.06335831,wait or hold,0.4237671241981893,0.23623372716487556,0.11915123760199009,0.048497714472079505,39.148885412654984,14.066218717554516,21.546659828360333,1.0,1.0000000000000007,0.9994007222176072,1.0667499152647189,-13.627624235098194,89.62438420706245,73.70513621786382,73.70513621786382,18.20716679933332,17.650096306538455,0.9,1.0,1,0.18753339703331373,0.07065352312991058,25.082666695100468,0.000599277782393437,-1.6699033834615449,0.16066097438273297,0.23601240159950976,0.17377396791422606,0.05800904447969302,0.09838902032863639,0.0035876026085546187,0.5095335465384176,-0.3734179996109871,0.4686853123241823,1.0,1.0,0.03879703228205078,-0.9368834350294963,0.727447515298036,0.6381494550771292,0.08602390614451894,-0.12424029533152847
2/4/2005,19.43499947,19.04000092,19.35000038,19.16250038,6324400,16.92425728,wait or hold,0.44765282271329454,0.2785175463748321,0.13398450587920152,0.053408787239749005,36.48959333371504,13.110733430503716,23.37436181708502,0.7817155648980403,0.9272385216326807,0.963319621925144,1.2021102576470675,-22.577056712216756,78.7216873419865,69.68354705312154,69.68354705312154,18.342333475999983,17.7018271226923,0.9,0.5,1,0.16913527633846243,0.08057571863945251,23.37885990321133,-0.03608110029246325,-1.4606732573077004,0.1468436066865788,0.24373472935087004,0.17927167229230268,0.0629741541164135,0.10986976064670273,0.005505287583117635,0.4069944688382361,-0.41598024711503023,0.42720087403725415,0.8544770432653601,0.9271215214032948,-0.09468834586229347,-0.9399754459062064,0.5484588657556648,0.5199753594281875,0.09723097201138353,-0.1104527399058104
2/7/2005,19.25,18.94750023,19.16250038,19.23999977,5828000,16.9927063,wait or hold,0.46744090560145324,0.3163022182918391,0.14856686809207886,0.05887378999370647,34.55380973335186,14.037417548515698,24.720651704746626,0.8279567279275072,0.8698907642751831,0.9166051931001635,1.2921691177647148,-19.162984487368863,80.11066252922444,70.53547660145387,70.53547660145387,18.45916684466665,17.760096329999993,0.9,0.5,1,0.15113868730961416,0.0896930780983724,20.516392184836164,-0.04671442882498045,-1.4799034400000082,0.1333277975443028,0.2508306626955654,0.18382623994956315,0.0678552784779638,0.1201289097582936,0.007639272185464119,0.3323530006895017,-0.3747009523698094,0.35750525715360815,0.739781528550365,0.8327652940797676,-0.13338461767278098,-0.938453985546676,0.6167403102526228,0.5450092452396527,0.10468733300655808,-0.11171994369998073
2/8/2005,19.54500008,19.04999924,19.23749924,19.42250061,5128400,17.153886800000002,wait or hold,0.4921627087721454,0.35147431644128135,0.16445832348901135,0.06493584664849399,36.6947753057308,12.837291767103617,26.39530042103238,0.9317650903485061,0.8471457943913517,0.8818754937457576,1.3528675431764796,-11.123294770386458,83.13515807701798,72.49558029888394,72.49558029888394,18.560333505999985,17.820961732307687,0.9,0.5,1,0.14068839233086405,0.09952247684051736,23.857483538627186,-0.03472969935440584,-1.6015388776923132,0.12547941070906088,0.25848076781722495,0.18951638819620165,0.07317459293100614,0.12967870286686445,0.01000639552323368,0.41490603685959715,-0.4281607504815186,0.4388544445950162,0.6942915887827024,0.7626164452211097,-0.08977039586534752,-0.9348711471057412,0.777534104592271,0.6026067452162047,0.10971281713013625,-0.11973530635230267
2/9/2005,19.78750038,19.16749954,19.38750076,19.55999947,5892400,17.27532387,wait or hold,0.5168820384790429,0.38455586088900023,0.18086517795085655,0.07159003620610555,36.944803458835544,11.509946577212968,28.259348842046656,1.0,0.9199072727586716,0.9008913832522145,1.4101762332647176,-11.757156252643078,85.12359429946125,73.90412429119756,73.90412429119756,18.68266677866665,17.933365528846146,0.9,0.5,1,0.13232617759004267,0.109275141744751,25.434856881622576,0.01901588950645705,-1.6266339411538553,0.11919921515297527,0.26607115189776986,0.19520596713260097,0.07866642586184658,0.13866087685732098,0.012604736035826125,0.42454681923979365,-0.4872875578338367,0.4772604700988725,0.8398145455173418,0.8010257255690019,0.1058178349331913,-0.9321717830853194,0.7648568749471383,0.64399670467122,0.1144576504635837,-0.12138898589046587
2/10/2005,20.05750084,19.67749977,19.73749924,20.0,4697600,17.6639328,wait or hold,0.5654321223555066,0.4207311132174398,0.2022376207755876,0.07908711608445146,38.36595455734123,10.565879588480556,30.298958420013317,1.0,0.9772550301161692,0.9390732066841918,1.4693161187647164,-2.628609828571403,89.67045373231562,77.8187690577388,77.8187690577388,18.83066673266665,18.072788605769222,0.9,0.5,1,0.14470100913806677,0.12315050469113614,27.800074968860677,0.0381818234319774,-1.9272113942307776,0.12849296860274295,0.276870183245018,0.20638060406083758,0.08582038005765646,0.14848304253873956,0.01553220995363258,0.479344682200173,-0.5293411753823081,0.5348490090354754,0.9545100602323371,0.8781473537681226,0.17556553307077638,-0.9235337361978875,0.9474278034285719,0.7590282472088379,0.11935409635380734,-0.14119602023203115
2/11/2005,20.40250015,19.87750053,20.0,20.3125,6347200,17.93993568,wait or hold,0.6219373032682469,0.46097235125887126,0.22625216798867598,0.08752999829870814,40.69781954015915,9.664973422131448,32.536075416715384,1.0,1.0000000000000007,0.9695366033420962,1.5903308526176545,-3.553807483564587,91.75782214780111,80.1018187811712,80.1018187811712,18.990666707333318,18.22951940423076,0.9,0.5,1,0.16096495200937566,0.13872216968996784,31.032846118027706,0.03046339665790443,-2.0829805957692393,0.1407075247832017,0.28898942647497905,0.21938624340990365,0.09385872046658505,0.15940918905680035,0.018829002554807683,0.5692585681373705,-0.5694721870783895,0.6135608065654548,1.0,0.9396789030645771,0.14747702442689192,-0.9173987671051854,0.9289238503287083,0.8261154919113882,0.1293734274908407,-0.15146068211084784
2/14/2005,20.5625,20.32500076,20.32500076,20.53750038,7218800,18.138652800000003,wait or hold,0.677056678846153,0.5041892168031935,0.25135865801377477,0.09692673843559778,41.67404145404019,9.26006783132809,34.757715104744825,1.0,1.0000000000000007,0.9847683016710485,1.782713244000007,-0.9569235319662381,92.95386994845384,81.57248593007203,81.57248593007203,19.15766677866665,18.385673229615374,0.9,0.5,1,0.17286746204295944,0.15443191957817698,32.413973622712106,0.015231698328952215,-2.1518271503846265,0.14964655504444013,0.30121613954588966,0.2320729158235184,0.10226256466586792,0.1711432665347954,0.02249825940007688,0.606900501294247,-0.5875087724712811,0.6471886210613296,1.0,0.9704446777128046,0.09204659764471912,-0.9129815818983175,0.9808615293606753,0.8693309356582635,0.14530159444063195,-0.15599743647351272
2/15/2005,20.72249985,20.36499977,20.53750038,20.54249954,4679200,18.143064499999998,wait or hold,0.7129231489887431,0.5459360032610651,0.2741359009371642,0.10708876833174161,41.86078017041404,8.698844770118946,36.960003848519,1.0,1.0000000000000007,0.9923841508355246,1.9493162309117693,-7.065761212908873,92.98027501266918,81.6050170390146,81.6050170390146,19.328666686666647,18.546153948846147,0.9,0.5,1,0.16698714572767803,0.16704713260542262,33.16193540029509,0.007615849164476107,-1.9963455911538546,0.14523031634019712,0.3110344110721801,0.24032820087638695,0.1098867447334928,0.1824781937810016,0.02646634803667469,0.6141009197437777,-0.6125085450056021,0.6654000604984964,1.0,0.9858275650369182,0.0643313842536326,-0.9128834388836312,0.8586847757418226,0.8702868598519748,0.15909537343878544,-0.14575172924684365
2/16/2005,21.32500076,20.5625,20.5625,21.24749947,8003200,18.76571846,wait or hold,0.7891076796826404,0.5945703385647297,0.3052579030139526,0.11845044955056402,46.25289735743734,7.611460816872002,39.44417603866832,1.0,1.0000000000000007,0.9961920754177627,2.150617777705886,-2.5327207614943217,95.65761576789022,85.49414455097954,85.49414455097954,19.529499943999983,18.72384621576922,0.9,0.8557210974483966,1,0.19453734111791066,0.1868074534633886,38.64143654056534,0.003807924582237998,-2.52365325423078,0.16592108069170308,0.32641363575995297,0.2578633810877873,0.12030414901268971,0.19568320185727472,0.03090287878868181,0.7834556322535862,-0.6609462400462802,0.7988154383328898,1.0,0.9935190086989751,0.05047377755808924,-0.8990429499847284,0.9493455847701135,0.9845685797798056,0.1757619956880918,-0.1804995151643134
2/17/2005,21.41250038,20.81749916,21.36249924,20.88999939,8656800,18.44997406,wait or hold,0.8112981502619654,0.6379159009179732,0.3280266559287668,0.13046384799537292,43.323527698380026,6.9046834585495445,41.805788570679205,0.5533039786660494,0.851101326222017,0.9236467008198899,2.301514730705886,-16.882093183795288,78.04703035458974,76.64487058526032,76.64487058526032,19.69599990866665,18.88355775999999,0.9,0.5,1,0.17338224934399216,0.19756280793339387,36.418844239830484,-0.07254537459787291,-2.0064416300000083,0.150033170913618,0.3347844013046921,0.2629708995963369,0.12792548723706032,0.2074522225989246,0.035593893314614045,0.6705026905810909,-0.6924297524172822,0.7446995646459413,0.7022026524440328,0.8469880967515533,-0.22738729009027536,-0.9060613561973317,0.6623581363240942,0.7245333287360531,0.18825540447841038,-0.14641702395239287
2/18/2005,21.52750015,20.94499969,20.96249962,21.39249992,8029200,18.89378548,wait or hold,0.8595047281959545,0.682233666384854,0.3560392275268818,0.14339203609359946,40.87665870200138,6.236489781805572,44.07148086935606,0.6403900052833212,0.7312313279831241,0.8274390144015069,2.4203602440588305,-4.745176194787995,83.13772978705896,79.8084956683073,79.8084956683073,19.88883323666665,19.05442311230768,0.9,0.5,1,0.17727106181110042,0.2126471914332823,34.640168920195805,-0.09620768641838284,-2.3380768076923175,0.1529537491971631,0.3465243990905984,0.27406647272316764,0.13730207819407858,0.21948521219893768,0.04064211663305173,0.5761543893437744,-0.722194548417434,0.7013922208314156,0.46246265596624725,0.6526628195663331,-0.3134979794262519,-0.8961963154913593,0.9050964761042399,0.8174962142637556,0.19809513650542887,-0.1682706569717053
2/22/2005,22.08250046,21.55500031,21.55500031,21.64999962,9565600,19.12120438,wait or hold,0.9080102219765607,0.7273889775123936,0.38514305289761097,0.15724493931856895,44.88652667394194,5.604318446152725,46.48070759429197,0.7292158643866297,0.640969949445334,0.7342044819234205,2.559183770941182,-13.686736092724804,85.1907957164158,81.21288557399116,81.21288557399116,20.09466654466665,19.228076934999986,0.9,0.5423270081461392,1,0.18062124446416705,0.22789811357904202,39.28220822778921,-0.09323453247808644,-2.4219226850000126,0.1554698053930359,0.35839401194057485,0.28523084647383534,0.14704394230069928,0.23174560898245966,0.0460514244615744,0.7307700356650253,-0.7503547233753007,0.814417003980586,0.2819398988906672,0.4643428729848438,-0.3026782278633896,-0.8911411068485431,0.7262652781455039,0.8587641061950608,0.20958893433615788,-0.17379581580924186
2/23/2005,21.78750038,21.54500008,21.57500076,21.61000061,7080800,19.08588219,wait or hold,0.9324749980168185,0.7684061816199629,0.41070864671495855,0.171766691102158,43.22805590196704,5.549616179023906,48.678175638212714,0.6701374377670565,0.6799144358123362,0.7070594588678784,2.6343088649411825,-15.071764444495702,83.35163252514448,80.27882034990235,80.27882034990235,20.269499969333317,19.38663467999999,0.9,0.5,1,0.16406881639685567,0.23894195561280054,37.67843972294313,-0.027145023055542117,-2.2233659300000106,0.14303859088675286,0.36698930395401264,0.2908618355052064,0.1556014613759802,0.24288244282885096,0.05172190553916134,0.666821413887908,-0.7527914447608863,0.775368306744183,0.3598288716246716,0.40951394687879517,-0.06216862519138966,-0.8919263634568269,0.6985647111100861,0.8313166697185665,0.21580886450103742,-0.16071159932934398
2/24/2005,22.08250046,21.61750031,21.72500038,22.08250046,6450000,19.50319481,wait or hold,0.9786939978195619,0.8104637448653659,0.4407476779362405,0.18717516092875355,44.60993544986745,5.150315769074203,50.86541155172732,0.829347290899904,0.7429001976845305,0.7249798282762044,2.650852972264712,-0.0,87.16915818375567,82.79602325547887,82.79602325547887,20.46466662066665,19.54730774807691,0.9,0.5,1,0.16823025295419602,0.25357251700748695,39.459619680793246,0.017920369408326087,-2.535192711923088,0.14616391547890428,0.37837609734742195,0.30149993333622316,0.16565636502952463,0.2543017509957308,0.05773863395377443,0.7201050134806748,-0.7705783464610709,0.8187366337112436,0.48580039536906017,0.445710438886622,0.10183107355725052,-0.8826502931334466,1.0,0.9052844880972639,0.2171786224169825,-0.18125992627451093
2/25/2005,22.9375,22.08499908,22.08499908,22.875,7637600,20.20312309,wait or hold,1.0669496387344104,0.861760923644525,0.4797257756848623,0.2039314324214443,51.42126508702142,4.516980193036991,53.2214620403499,1.0,0.8331615762223206,0.7790707022492624,2.7503235370000105,-1.5664161303949145,91.14319273616205,86.01929206332841,86.01929206332841,20.70166664133332,19.74538465653845,0.9,1.0,1,0.20518871508988545,0.275794343263418,46.904284893984425,0.05409087397305812,-3.1296153434615483,0.17392048199366372,0.3956710826575842,0.321813487203642,0.17870342418978025,0.2682297641131999,0.06428165450984702,0.9827416243429496,-0.7987903826962017,1.0,0.66632315244464,0.5549659928794146,0.2334609457914354,-0.8670920205450288,0.9686716773921018,1.0,0.22541421898228853,-0.2204303609021302
2/28/2005,23.32500076,22.30500031,22.92499924,22.78000069,10749200,20.119213100000003,wait or hold,1.1163599909643516,0.9126807371127389,0.5133890576379443,0.22165370985354976,49.58884722319199,3.900720178317702,55.521002208551856,0.8497914384903893,0.8930462431300982,0.8360584726896803,2.8749706783823648,-12.74853511631032,87.35917441244152,83.9879147729206,83.9879147729206,20.942833328666655,19.93769234884614,0.9,1.0,1,0.20367925385161267,0.2917353477843945,45.688127044874285,0.05698777044041792,-2.84230834115386,0.1727868455044681,0.40807777848196247,0.3331861296911569,0.18997146589881297,0.28205531644966664,0.0712018828905625,0.9120858136456511,-0.8262417852753952,0.9703888812518267,0.7860924862601952,0.6700728486751475,0.24400318501267182,-0.8689570376031983,0.7450292976737936,0.9403081308453038,0.23573429278679003,-0.20149780424152064
3/1/2005,22.70000076,21.86750031,22.60000038,21.98749924,8655200,19.41929245,wait or hold,1.0791476901904709,0.9459741277305076,0.5314840335288125,0.2393950962841516,43.828017904507725,9.017448262057332,56.26038679018552,0.0,0.6165971461634635,0.7263278094265719,2.803669200735307,-32.17080282660755,62.218582040089466,69.28793757060043,69.28793757060043,21.125999959999987,20.09442307423076,0.9,0.5,0,0.13317356245996326,0.2920889372446609,34.81056964245039,-0.10973066326310843,-1.8930761657692372,0.11983561864885672,0.4083529729889621,0.324621078568474,0.19602836027252324,0.2910950100992069,0.07812957298912049,0.6899552211454392,-0.5983163006421229,0.705541152670442,0.23319429232692612,0.4484331611600427,-0.3627101133380548,-0.8845153476885473,0.3565839434678493,0.5083504044882479,0.22983093629159002,-0.13894662449235173
3/2/2005,22.60499954,21.88999939,21.98500061,22.48999977,4772600,19.86309052,wait or hold,1.0777691906395397,0.9723331403137214,0.5549596499114067,0.2574626882455739,39.91513902971675,8.212388291378263,56.94695818741679,0.19596076184454722,0.3485840667783126,0.5374559381024423,2.755874948029419,-22.892412977796088,68.85002371240837,72.5666265436866,72.5666265436866,21.330499903999986,20.265865399615375,0.9,0.5,0,0.10543605032581826,0.2974969616658328,31.702750738338487,-0.1888718713241297,-2.2241343703846255,0.09900417556340746,0.412561974618439,0.3243037931848567,0.20388630546375563,0.2982519080370656,0.08518464043976937,0.5390793567937775,-0.6341778279644359,0.6298717034416186,-0.30283186644337523,0.06693995501492811,-0.650716798091042,-0.8746503069825748,0.5421517404440783,0.6046944337852944,0.22587384421642764,-0.16076223694348202
3/3/2005,23.29999924,22.68000031,22.85000038,22.94000053,5651600,20.26052856,wait or hold,1.1002950641514353,0.9979255250823575,0.5825579683271975,0.27607387646574916,44.42227428361087,7.405753229147895,57.98087696201399,0.3490139850776222,0.18165824897405689,0.3595570935382496,2.8006395452941213,-11.167518616815364,73.67712615763378,75.1274142778538,75.1274142778538,21.55583330799999,20.45673076923076,0.9,0.5,1,0.10236953906907775,0.30648409186144837,37.01652105446297,-0.17789884456419272,-2.4832697607692396,0.09670116243062399,0.4195565520633151,0.32948851044770056,0.21312423429795913,0.3052006541328196,0.092451972384747,0.7128690264822999,-0.6701095179960616,0.759251852528688,-0.6366835020518864,-0.29238936229689116,-0.6107843136589302,-0.8658159365688392,0.7766496276636929,0.6799429890796056,0.22958009806611201,-0.17783837996060126
3/4/2005,23.65999985,22.78000069,22.94000053,23.39500046,3801200,20.66238403,wait or hold,1.1416920592110316,1.026678831909075,0.6139919685593576,0.29541710854516795,44.06016960190256,6.6424168612148335,59.11070780869403,0.48617355641678667,0.34371610111298573,0.3516365973256177,2.7635293914411783,-7.946010863829055,77.74526760050414,77.42227968799997,77.42227968799997,21.782166671999992,20.655192301923066,0.9,0.844827814109461,0,0.11501322730195662,0.3185748600141896,37.417752740687725,-0.007920496212631967,-2.739808158076933,0.1061968327899403,0.4289666543286239,0.33901674094238055,0.22364607308335716,0.3130076416550227,0.10000515419919376,0.6989067090718375,-0.7041124606484658,0.7690210770705712,-0.312567797774029,-0.30838759153681694,0.007792301330003193,-0.856883422944098,0.8410797827234189,0.7473774368490711,0.2265075885611889,-0.1947433899451766
3/7/2005,23.32500076,22.71999931,23.25,23.09499931,3633800,20.39742851,wait or hold,1.1371876683113236,1.048780599190129,0.6373527137239208,0.31498836502083055,40.603065336111946,6.818697218965941,59.97725218252291,0.20165647416484944,0.34561467188641987,0.3486256346060188,2.6366836998235357,-17.147208688383405,69.48469288738133,72.66192352560617,72.66192352560617,21.96766662599999,20.836057663076915,0.9,0.5,0,0.08840706912119467,0.3223643487030902,33.784368117146,-0.003010962719598942,-2.258941646923084,0.08621505983263456,0.43191596868527227,0.33797997789547884,0.23146556766606752,0.31900862868659097,0.10764737541077363,0.5656049609356042,-0.6962600234436374,0.6805551072754474,-0.3087706562271607,-0.3144692902748568,0.025658827500818715,-0.8627730158497783,0.657055826232332,0.6074947284437222,0.21600548731153735,-0.16305591837126754
3/8/2005,23.57999992,23.0,23.0,23.53000069,4038000,20.781612399999997,wait or hold,1.1553929589387373,1.070103071140317,0.6645122984262031,0.3349920754905765,40.83066531883344,6.357129451855414,60.9114515612245,0.3447919882208506,0.34420733960082933,0.3464164871034241,2.677933597176473,-4.196906095088175,74.13392599168213,75.05677455177599,75.05677455177599,22.167166646666658,21.029519228076914,0.9,1.0,1,0.08528988779842028,0.32952022293562655,34.473535866978025,-0.002209147502594766,-2.500481461923087,0.08387399243631011,0.4374853012103186,0.34217023868786045,0.24055664005918298,0.3247980244406463,0.11545846207515309,0.5743809402639608,-0.716820634695208,0.6973350245309411,-0.3115853207983418,-0.31893144103189586,0.02857675291656192,-0.8542331117807135,0.9160618780982364,0.6778672460327224,0.21942074401449374,-0.17897257266980549
3/9/2005,24.20499992,23.26000023,23.70000076,23.30999947,8835000,20.58730698,wait or hold,1.1389422926922563,1.0838709154509456,0.6850765570155772,0.35502609491512643,43.517366313403514,5.682226922280121,62.053585421583435,0.1405022880554514,0.22898358348038425,0.2877000352919042,2.802911657117651,-26.42067156318507,68.01920853118875,71.63873115909557,71.63873115909557,22.35166664199999,21.21211536153845,0.9,1.0,1,0.055071377241310726,0.3300504621004508,37.83513939112339,-0.05871645181151994,-2.0978841084615496,0.06117926841949539,0.4378979800991232,0.3383838348785533,0.24744007239425247,0.3285362166906187,0.12328138383747778,0.677976872512664,-0.7468842776358042,0.7791836441082269,-0.5420328330392318,-0.43752997716118824,-0.17706177316953742,-0.8585521539728951,0.47158656873629856,0.5774282975791862,0.22976821599204955,-0.15244277303178932
3/10/2005,23.00499916,22.03499985,23.0,22.43000031,7807200,19.81010246,wait or hold,1.0428862739925435,1.0756739871591505,0.6893901232731743,0.3741588964801067,37.70164748261391,17.76290396813951,60.18894537930181,0.0,0.16176475875876775,0.22473239702533598,2.5658234026764646,-54.44783695613416,49.11440275727674,59.89016117683317,59.89016117683317,22.430500031333327,21.34451924884614,0.1,0.0,0,-0.032787713166607,0.3152312267930676,19.938743514474396,-0.06296763826656823,-1.0854810611538603,-0.004804718627376303,0.4263643440245173,0.31627488988738794,0.24888394362977317,0.32631061817841633,0.1307523963470052,0.45372980698894816,-0.20874855392481884,0.34344061629689526,-0.6764704824824648,-0.5647152802838241,-0.192532476071131,-0.8758282104471471,-0.0889567391226832,0.23219745078006127,0.2101386580504998,-0.08572884715260187
3/11/2005,22.89999962,22.36000061,22.43000031,22.69000053,4439600,20.03972816,wait or hold,0.9764813562386792,1.055835460974834,0.6962713895062258,0.39258919829309286,35.53558086899789,16.74237473890629,58.45749391146888,0.07612875344075204,0.07221034716540155,0.14847137209536876,2.311242511823526,-56.95486771157103,53.56318658265129,61.8793393397123,61.8793393397123,22.550500107333328,21.480480781153837,0.9,0.7808990657746508,0,-0.07935410473615478,0.30368219121313295,18.7932061300916,-0.07626102492996721,-1.2095197488461622,-0.03977703809800548,0.41737586583190245,0.30099065581609374,0.2511872958410355,0.3209241376837295,0.13794909542589018,0.37020890510821935,-0.2542081944115965,0.31554897086266953,-0.8555793056691969,-0.718751255574809,-0.2409090969980332,-0.8707239118430008,-0.13909735423142067,0.29064930174080694,0.18906080938360703,-0.09390257582604089
3/14/2005,22.92499924,22.22999954,22.77499962,22.88500023,3761600,20.21194649,wait or hold,0.9288798514443073,1.0304443390685014,0.7045073681232488,0.4104348891426492,32.91452985901609,16.88714963130926,56.58070213856988,0.1323171196130055,0.06948195768458625,0.10897666488997751,2.0899997592941126,-49.62405148114598,56.86309880629088,63.347492513725435,63.347492513725435,22.650000127999995,21.61759618653845,0.9,1.0,0,-0.10156448762419412,0.29407247898059957,16.027380227706832,-0.03949470720539126,-1.26740404346155,-0.05645749324483429,0.40989674012988275,0.2900343506803844,0.2539441081655338,0.3140300377079559,0.14491751451106083,0.269144356652979,-0.2477591732844937,0.248206397452307,-0.8610360846308276,-0.7985247145441985,-0.1071109716236317,-0.866895697018725,0.007518970377080381,0.33379087252436657,0.17074316880642937,-0.09771695444808226
3/15/2005,23.18499947,22.43000031,22.82500076,22.44000053,3427000,19.81894302,wait or hold,0.8455057076659251,0.9934566127877211,0.7041084404892395,0.4272355815567814,33.03547987111909,15.545715636124898,55.11073047773531,0.0,0.06948195768458625,0.08922931128728187,1.853462993970581,-68.2125470929057,47.81641248993754,57.87007952640553,57.87007952640553,22.70266685533333,21.743653884615373,0.9,0.5,0,-0.14795090512179598,0.2768728589324581,17.48976423499419,-0.019747353602695625,-0.6963466453846259,-0.09129464847944746,0.39651047868372524,0.27084435734697054,0.25381057593224865,0.303987272217052,0.15147788063247858,0.27380804244630874,-0.3075135687599091,0.2838126524519353,-0.8610360846308276,-0.8384114440288933,-0.03524740038054275,-0.8756318871171624,-0.3642509418581139,0.17283750315806068,0.1511592710246994,-0.060086209430691095
3/16/2005,23.04000092,22.08499908,22.44000053,22.64999962,5241800,20.00440788,wait or hold,0.7872986038375593,0.9522250109974525,0.7058705880278815,0.4431748877909315,29.80984572130368,17.555177724516348,53.02230841200154,0.06299935343200452,0.06510549101500374,0.0771674011511428,1.4885071145588213,-66.52408810455378,52.01914256223396,59.643461715851736,59.643461715851736,22.772000122666665,21.874807724999986,0.9,0.5,0,-0.16492640715989315,0.26269570023695,12.254667996787333,-0.012061910136139067,-0.7751918950000132,-0.10404360025433423,0.38547656326405044,0.2574469911636039,0.2544004159838089,0.2927922259346545,0.15770189105061205,0.1494315012834715,-0.21800175322992155,0.1563480667642443,-0.8697890179699926,-0.862774716006927,-0.007278922922468123,-0.8715092057518966,-0.3304817620910757,0.2249482056423049,0.12094300156880555,-0.06528184386971736
3/17/2005,23.29000092,22.73999977,22.75,23.16500092,6963600,20.45925331,wait or hold,0.7738006222406568,0.9165401332459296,0.7143361478739934,0.45868569524512726,30.418939952785394,16.39952564259432,51.37387199546076,0.22249004567090558,0.09516313303430375,0.08616526709272328,1.4513675531470547,-44.49194325213166,61.004742178036196,63.68103788322786,63.68103788322786,22.844166819999998,22.01875004461537,0.9,0.5,0,-0.14273951100527282,0.2556504526288661,14.019414310191074,0.008997865941580474,-1.1462508753846308,-0.0873807841281975,0.37999333013618175,0.254340198516382,0.25723407556486966,0.2831032048764357,0.16375858045543357,0.17291743621451983,-0.26948046316500507,0.19931626590454044,-0.8096737339313926,-0.8446003594844218,0.06936074986478102,-0.8613987511656522,0.11016113495736679,0.343592078163274,0.11786805728540206,-0.08973337172714269
3/18/2005,24.21500015,23.75,24.0,24.10499954,9162200,21.28945541,wait or hold,0.8293846258053215,0.8991090317577441,0.7355405335562679,0.47452125614567864,36.42828896362699,14.69084302443685,50.74167487954326,0.6024682090491376,0.2959858693840163,0.19107556823836977,1.5574557760294105,-4.685862300207872,72.12215875771716,69.6496585407316,69.6496585407316,22.92616678933333,22.193557739615372,0.9,1.0,1,-0.06972440595242269,0.2610192774105893,21.73744593919014,0.1049103011456465,-1.9114418003846296,-0.03254493591186913,0.384171823148562,0.2671338130533498,0.2643317763361519,0.27837037909619955,0.1699420801996605,0.40463064667007265,-0.3455940082770903,0.38723558183517315,-0.4080282612319679,-0.6326970894997768,0.41840043685578476,-0.842944791226828,0.9062827539958425,0.5189795480360939,0.12665155827702068,-0.14015685750154094
3/21/2005,24.11000061,23.48500061,24.10499954,23.82999992,3921800,21.04657745,wait or hold,0.8415463178895699,0.8875964889840756,0.749629434441438,0.49025604279791746,34.14760019717373,16.425641507833443,49.62028130050787,0.42710837311251654,0.41735554261085356,0.30421555542461165,1.6459045303235271,-16.5591442645379,65.7265137811666,66.22098792819442,66.22098792819442,22.996166737999996,22.34086542884614,0.9,1.0,1,-0.04605017109450571,0.2593733916435206,17.721958689340287,0.11313998718624191,-1.4891344911538589,-0.014765097776092029,0.38289084966619313,0.26993303568333094,0.2690477253939352,0.27524453766430734,0.17608622942497765,0.31669005357564894,-0.2683171277006561,0.2894661435389192,-0.16528891477829344,-0.40417107261701635,0.44834949438447813,-0.8483435565682834,0.6688171147092419,0.41822831952500117,0.1339746116748639,-0.11232823865138641
3/22/2005,24.10499954,23.24500084,23.82999992,23.29999924,3800600,20.57847786,wait or hold,0.7992088576331078,0.8699189627138405,0.7531907464291265,0.5052937859884762,31.24852650618663,17.400388825154188,48.109222657762594,0.11313987469025975,0.3809054856173049,0.3425605205209583,1.677603120911762,-41.97251303130564,54.79988056203303,60.082213002607205,60.082213002607205,23.083666737999994,22.45576924576922,0.9,1.0,1,-0.07071010508073272,0.24789696044065035,13.84813768103244,0.038344965096346606,-0.8442299942307798,-0.033285216265473316,0.3739588786040149,0.2601883409463779,0.2702397960919758,0.27044480357296097,0.18195819580220474,0.20490528769270133,-0.2248968499256181,0.19514600740683474,-0.23818902876539072,-0.32671992241888226,0.1761592299709276,-0.8587484774991988,0.16054973937388728,0.23784087926041164,0.13659907454454,-0.06983122037265233
3/23/2005,23.13500023,22.22500038,23.13500023,22.51499939,6357200,19.88517952,wait or hold,0.6943147821983295,0.8347981266106723,0.7430940703239663,0.5188933758555355,28.04353610308364,25.34744499694705,45.033543368760526,0.0,0.1800827492675924,0.26132163489427535,1.594007603823524,-77.98167550710885,42.570718846686795,52.34260106861174,52.34260106861174,23.08533337933333,22.531826899999984,0.1,0.0,0,-0.14048334441234278,0.22420069446843083,2.6960911061365884,-0.08123888562668294,0.016827509999984613,-0.08568635653337153,0.35551635425092076,0.23604516517166108,0.26686015629232385,0.26090892893846473,0.18726858935205537,0.08132474436888693,0.12910605969155386,-0.07638500779487012,-0.6398345014648155,-0.49081043904320776,-0.25902427607538414,-0.8741595169152812,-0.559633510142177,0.010412963700995315,0.1296778415623112,-0.01309045228850525
3/24/2005,23.25499916,22.45499992,22.58499908,22.74500084,4159400,20.08831787,wait or hold,0.6225666475295029,0.7923518307943745,0.7361988174267147,0.5313203086744799,27.05280482559503,23.42217900351324,42.33064178662785,0.08195006115801355,0.0650299786160914,0.16317580675518337,1.4582574384117564,-67.43115172965803,46.641070872622215,54.20402897471078,54.20402897471078,23.072333399999994,22.616538488461522,0.1,0.5,0,-0.1697851832648717,0.2048785087522348,3.6306258220817895,-0.09814582813909196,-0.1284623515384773,-0.10769264121396671,0.3404781249770039,0.21953109781716496,0.2645521223534808,0.2493840735957853,0.19212108156183816,0.04312334774648208,0.04334477290442318,-0.053630873972199344,-0.8699400427678172,-0.6890504754448916,-0.3205511668268345,-0.8696441511967958,-0.3486230345931606,0.06511088295825851,0.11843850056751615,-0.02266456121622018
3/28/2005,23.02000046,22.46500015,22.75,22.63999939,3214200,19.99557495,wait or hold,0.5508833326572073,0.744058131166883,0.7270555204961653,0.542513227784913,25.600070980528084,22.164409527003084,39.82080460321894,0.03698871567094005,0.03964625894298484,0.1014110328490841,1.1071692458823463,-72.24773134205529,44.94444485217825,53.18276917328091,53.18276917328091,23.021999995333328,22.670096177692294,0.1,0.16357997740418243,0,-0.19317479850967567,0.18454229271125233,3.4356614535250003,-0.06176477390609927,0.030096787692293958,-0.12525872415631156,0.3246506878598947,0.20303194985382444,0.26149160522044856,0.23627155361103958,0.19649171376685892,-0.012892307621612309,-0.012682772980131984,-0.058377883641397954,-0.9207074821140304,-0.8138061707163644,-0.18815507288063293,-0.8717055292782003,-0.44495462684110576,0.03510124037351492,0.08937039664944679,-0.012216051909338832
3/29/2005,23.11499977,22.35000038,22.63999939,22.375,4537400,19.76152229,wait or hold,0.46730515410152407,0.688707535753758,0.7133670428065741,0.5522829277213644,23.710081654263796,21.63789038741016,37.30285674490282,0.0,0.03964625894298484,0.07052864589603447,0.7872941400588189,-84.40366499032127,40.59633230998026,50.59204507253919,50.59204507253919,22.97400004133333,22.72721158576922,0.1,0.0,0,-0.22140238165223391,0.1610841150852097,2.072191266853636,-0.03088238695304963,0.3522115857692185,-0.14645822066595449,0.306393464858824,0.18379499440675362,0.25690968900222444,0.2212429723650291,0.20030660465942707,-0.08576800409478047,-0.03613665368209462,-0.09157577619840529,-0.9207074821140304,-0.8761840183521007,-0.07576945100904331,-0.876907971093352,-0.6880732998064255,-0.04102699280484601,0.06288655864312376,0.009010220394602753
3/30/2005,23.19000053,22.04999924,22.45000076,23.18499947,7224800,20.47691727,wait or hold,0.4611096189012507,0.6431879523832215,0.7122536945509061,0.5614299625307672,21.198474412654168,22.13342733919408,34.79248518869473,0.3582723713949476,0.13175369568862952,0.101141170792332,0.4785734842058815,-47.24773111269751,55.83350374673615,57.419861442916776,57.419861442916776,22.950999959999994,22.79615387615383,0.1,0.0,0,-0.18207833348197078,0.150823732020139,-0.9349529265399106,0.030612524896297524,-0.38884559384617035,-0.11692505030133882,0.29840792972128427,0.18236898540921342,0.25653702021137303,0.20888366978006645,0.20387835609656157,-0.18261253356158846,-0.014062879574775478,-0.16479398867683437,-0.7364926086227411,-0.8143512521015676,0.14801972437543864,-0.8610061416099759,0.055045377746049784,0.15960787857891923,0.03732624560230313,-0.03982293344128762
3/31/2005,24.42000008,23.82500076,23.875,24.37000084,6218600,21.52350044,wait or hold,0.5455253399735405,0.6236554299012732,0.728567729390285,0.5709864528452028,29.821435899020628,19.69893737201371,33.76738473302588,0.7577513232961046,0.372007898230351,0.2365745345113415,0.6304558466176466,-2.1096718261079483,69.28181071210211,65.03297689692764,65.03297689692764,23.021666717999995,22.900769307692293,0.9,0.5,1,-0.07813008992773274,0.15758127654508225,10.122498527006918,0.13543336371900952,-1.469231532307706,-0.03885777775864707,0.30366724693246394,0.201798715673293,0.26199778381929884,0.20358027423628733,0.20760999249303191,0.14987840448108902,-0.12250763108849705,0.10443381615352498,-0.2559842035392984,-0.5407959165083971,0.5294784236042831,-0.8377423119147454,0.9578065634778412,0.3833187045718498,0.04990124068288293,-0.11101670119131068
4/1/2005,25.15999985,24.54999924,24.625,25.12999916,6116800,22.19472885,wait or hold,0.6660695437663229,0.6321382526742874,0.7542781146724664,0.5814662184437305,34.318626377233876,18.311458688009115,33.52789167258782,0.9594274640232828,0.6918170529047787,0.4641957937080601,0.8837646935000016,-0.9646522223671792,74.98177066520392,68.87644283266299,68.87644283266299,23.201666641333325,23.036153867307675,0.9,1.0,1,0.03393129109203552,0.17281189622873594,16.00716768922476,0.2276212591967186,-2.0938452926923254,0.04530262817467645,0.31552105861561275,0.2295440376919997,0.270603768646289,0.2058834977208448,0.21170215116710822,0.3232846156791629,-0.18431309471574386,0.2477142607797258,0.3836341058095565,-0.08103468605644648,0.8649639538531786,-0.8228221000628878,0.9807069555526564,0.496258662510628,0.07087377134959216,-0.15217662877572025
4/4/2005,26.25,24.68000031,25.33499908,25.03499985,8144000,22.11083221,wait or hold,0.7453444296196707,0.6547794880633729,0.7752578117023319,0.592545961282164,38.91769907812105,15.912707018753313,34.129944598607736,0.906731161521009,0.8746366496134658,0.6694162216607629,1.2716470218823588,-28.92856976530645,73.00620896652441,67.87217706837171,67.87217706837171,23.357999929333328,23.149711536153827,0.9,1.0,1,0.0905649415562978,0.1827118504201679,23.00499205936774,0.2052204279527029,-1.8852883138461713,0.08783566648978947,0.323226076211383,0.24779051630144266,0.2776262598432222,0.21203095906277336,0.21602859008757425,0.5006192818332618,-0.29116587793622906,0.41809790674704894,0.7492732992269304,0.33348018308355654,0.7834439808787248,-0.8246871171210575,0.4214286046938711,0.4667483884312218,0.10298822028098575,-0.1384334314736867
4/5/2005,25.47500038,24.72500038,25.03499985,24.98500061,6049600,22.06666565,wait or hold,0.7949719672145292,0.682817983893613,0.7925526297906806,0.6039806913546506,36.460547679756964,14.908024541909015,34.68899374419766,0.8775397925061689,0.9145661393501537,0.7919911805054582,1.6081985534705971,-30.119027645128313,71.84391854370968,67.31585924107952,67.31585924107952,23.49799995466666,23.230865405769215,0.9,0.9670343018961413,1,0.1121539833209162,0.18857193843603004,21.55252313784795,0.12257495884469549,-1.754135204230785,0.10404948165151096,0.3277869136053637,0.25921314773656157,0.2834153190276849,0.21964386384646395,0.22049364509399738,0.4058745036446243,-0.33591962226065497,0.38273306513160965,0.8291322787003064,0.5810634452969079,0.4826847664211955,-0.825668697255645,0.3976194470974337,0.4504010308468098,0.13085277141701623,-0.12979088653373005
4/6/2005,25.20499992,24.45499992,24.95000076,25.01499939,6983000,22.09316254,wait or hold,0.8271873129623302,0.7116918497073638,0.8076788511865942,0.6156261340229359,34.13928712018519,16.250848943643206,34.746914239526106,0.8865748439886929,0.890281932671957,0.8411365565887077,1.9241323807647106,-29.404771107708076,72.1542323064498,67.48804575989868,67.48804575989868,23.669666545333325,23.316826894230754,0.9,1.0,1,0.1154954632549664,0.19205271716365835,17.88843817654198,0.049145376083249315,-1.6981724957692457,0.10655900192610157,0.3304959626398096,0.2666280637059202,0.28847848826432587,0.22748358508215372,0.2250409795530024,0.31636951140805225,-0.27610329089935304,0.29351960080046724,0.7805638653439129,0.680329826033037,0.21546353980543498,-0.8250797641736649,0.41190457784583856,0.45546071877385796,0.15701029399519095,-0.12610313391956085
4/7/2005,25.47999954,24.22500038,25.45000076,24.55999947,5305600,21.691316600000004,wait or hold,0.8067056676334659,0.730694613292588,0.8131992538150215,0.626921099960698,32.88089191920896,14.57831517589657,35.01962464646959,0.605990963920215,0.7900352001383592,0.8155858783635335,1.955169065823533,-40.23810057596271,60.37900513978076,62.140786628147985,62.140786628147985,23.796999868666656,23.415769210769213,0.9,1.0,1,0.07601105434087785,0.18627815385432345,18.302576743312393,-0.025550678225174317,-1.1442302592307882,0.07690539733897928,0.32600168811631525,0.2619138607227627,0.29032632137680925,0.23264314252336504,0.22945145919599197,0.26784731848598975,-0.3506065795909322,0.30360308321009843,0.5800704002767172,0.6287212403449332,-0.05636656605939805,-0.834012277602087,0.1952379884807458,0.29833191068098075,0.15957995485465348,-0.08960021997826528
4/8/2005,24.51000023,23.57999992,24.45000076,23.64500046,6119800,20.88319016,wait or hold,0.7084767723346488,0.7262510451009995,0.8026664931517509,0.6369679487447669,30.261744596765382,18.65971609019476,34.21219585872943,0.13385972480332614,0.5421418442374115,0.6788638613004725,1.7069926922647127,-62.023787348076574,43.66175708930136,53.03958952490392,53.03958952490392,23.82899983799999,23.46019231423075,0.1,0.0,0,-0.017774272766350685,0.16569854440698395,11.602028506570623,-0.13672201706306097,-0.18480814576924942,0.006470684433366403,0.30998482078140777,0.23930479080603329,0.2868007118824527,0.2314366419411935,0.23337457169429432,0.1668561739136638,-0.16879991209762946,0.14045754280085054,0.08428368847482237,0.35256301586002237,-0.46093568400315543,-0.8519754476699365,-0.2404757469615315,0.030893917156458173,0.13903236376466532,-0.026377557882826697
4/11/2005,24.30999947,23.42499924,23.64500046,24.28000069,3903200,21.4440155,wait or hold,0.6740965939547507,0.7158201548717484,0.8016463533935685,0.6463819023292959,28.085997645769606,18.577355981130633,33.223975251418494,0.3872552076642459,0.3757019654625959,0.5272829133815342,1.3101028430000063,-46.904736988666585,53.978442623368046,57.67277332415163,57.67277332415163,23.840666581333323,23.511730781923056,0.9,1.0,0,-0.04172356091699769,0.15526445106427256,9.508641664638972,-0.15158094791893834,-0.7682699080769453,-0.01151572439214188,0.30186408898336814,0.2313916013684838,0.28645924258185795,0.2286044866570729,0.23705055007912512,0.08296200996269931,-0.17246865655027,0.08948757503913485,-0.2485960690748088,0.04639195181167444,-0.5150095542361628,-0.8395091859582287,0.06190526022666831,0.16703967521936902,0.10617214337577563,-0.06482570841679636
4/12/2005,24.38999939,23.58499908,24.28000069,23.69499969,4081600,20.92735481,wait or hold,0.5928132090334799,0.6912187657040921,0.790266400064052,0.6546069702596887,26.891939142217492,17.35505604279712,32.39038714822744,0.1060337368756273,0.20904955644773326,0.36816623491463374,1.0238158831176634,-60.83332970634984,45.101602750357834,52.53080809356548,52.53080809356548,23.83166656599999,23.52326921384613,0.9,1.0,0,-0.09840555667061224,0.1356594298043633,9.536883099420372,-0.15911667846690047,-0.1717304761538685,-0.054085071015610775,0.2866057321412947,0.21268283214978356,0.28265005401425025,0.2219248118837247,0.24026229014714273,0.03692056207364325,-0.22691620608826912,0.09017519998810242,-0.5819008871045337,-0.2750001718218469,-0.5424332040070504,-0.850993867731668,-0.21666659412699685,0.015943412997924344,0.08246921266684581,-0.025515783825831084
4/13/2005,23.70000076,22.79999924,23.67499924,22.90500069,4871200,20.24670982,wait or hold,0.45935586754852764,0.6448461860729755,0.7661508216534578,0.6609831680060877,24.91797815095554,22.483534655114333,30.443630411186412,0.0,0.1644296481799579,0.2662979415472958,0.6612350235294286,-79.64282630272659,35.820723679195254,46.501347586201405,46.501347586201405,23.805333329333326,23.51596157461536,0.1,0.5,0,-0.18549031852444786,0.10516765364737013,2.434443495841208,-0.10186829336733791,0.6109608846153591,-0.11948752136496643,0.2628743423517088,0.18196532936859877,0.2745778956386422,0.20933390702765742,0.24275207989198377,-0.03919297997128368,0.0015327077515019383,-0.08275562692486316,-0.6711407036400845,-0.4807590366479614,-0.33409777416025754,-0.8665030499661175,-0.5928565260545318,-0.16123183129494234,0.052449581333528394,0.02606092128928994
4/14/2005,23.67499924,22.74500084,23.14999962,22.85000038,6256800,20.19808769,wait or hold,0.3451730880318493,0.5849115664647464,0.7418804109323105,0.6656074152878277,23.036270071755503,21.232254471115773,28.560168625540875,0.0,0.03534457895854257,0.1508212602529192,0.2927350496764838,-80.95235725624006,35.23185556258343,46.10458404251839,46.10458404251839,23.827666728666657,23.489807716538436,0.1,0.5,0,-0.23973847843289708,0.07627299564448276,1.8040156006397297,-0.11547668129437663,0.6398073365384356,-0.1602290071246819,0.24038597078644575,0.15568419857174076,0.2664539105595163,0.19306068912443286,0.24455776470879909,-0.1117493616001366,-0.054205771542758296,-0.09810534101060531,-0.9293108420829149,-0.7140048295399449,-0.38362073176632605,-0.8675828106123225,-0.6190471451248012,-0.17289069823547287,0.021939881031186603,0.02796180459914499
4/15/2005,23.07500076,21.74500084,23.04999924,21.80999947,7069000,19.27879143,wait or hold,0.16881905699039024,0.5016930645698707,0.7020398167195339,0.667689923963334,20.636203205171146,26.85370861166916,27.45531841217297,0.0,1.4340380734741606e-16,0.07541063012645967,-0.03128690120587052,-98.55718885417058,25.85521592076411,39.27980212247096,39.27980212247096,23.765333303999988,23.43211540884613,0.1,0.0,0,-0.3328740075794805,0.03434989275619982,-6.217505406498013,-0.07541063012645953,1.6221159388461288,-0.23017570837413948,0.20775771421299005,0.11509328481073222,0.253118149716949,0.17046552085995814,0.24537094663163805,-0.20429302946847627,0.19620281737582856,-0.29341404313107267,-0.9999999999999997,-0.8663231332803444,-0.23781438320619197,-0.8880000056178649,-0.9711437770834115,-0.37343640252412513,-0.004887292141818378,0.09269260865896989
4/18/2005,22.40999985,21.39999962,21.85000038,22.38999939,4945000,19.79147148,wait or hold,0.07499286544953065,0.4163530247457991,0.6733760037061387,0.6680149395082832,19.01594704768634,27.427248223626073,26.787863110635268,0.16750375513340568,0.0558345850444687,0.06562260758546418,-0.3970220957941102,-79.58763520756672,36.799196476017514,44.23735058076237,44.23735058076237,23.748666637333322,23.43057691192305,0.1,0.0,0,-0.34136015929626845,0.005361064197855536,-8.411301175939734,-0.009788022540995478,1.0405775219230513,-0.23654898315263484,0.18519605081498014,0.09349757289608052,0.24352357004925618,0.14729432075883486,0.2454978593157977,-0.2667681420528597,0.2217512326662725,-0.3468287763301473,-0.8883308299110627,-0.8860934891030855,0.0009960938964979071,-0.876613504552362,-0.5917527041513344,-0.22775921330981208,-0.035168084458397475,0.054371200060211455
4/19/2005,23.44000053,22.62000084,22.64999962,23.29999924,5369000,20.59586716,wait or hold,0.0732187714054291,0.34772617407772277,0.6602343242707356,0.6675702081627483,25.405625057597693,25.211100670574332,24.901894925237798,0.39591023915226764,0.18780466476189125,0.1267136361736777,-0.6104703396176419,-60.82475317249359,50.24268112102709,50.997415224146835,50.997415224146835,23.810333253333322,23.454038400769207,0.1,0.34539438231485775,0,-0.2745074026722937,-0.0073358838920126734,0.1945243870233604,0.06109102858821355,0.15403916076920865,-0.18634118556853307,0.17531416585336257,0.09308923463512464,0.23912468249541496,0.12866102163666415,0.24532419977960362,-0.020389906609607267,0.12303257949934743,-0.13729337526570418,-0.6243906704762178,-0.7626986595849063,0.25893555469448293,-0.8587484774991988,-0.21649506344987168,-0.029115221336668884,-0.05284038408172376,-0.004048670042272162
4/20/2005,23.62000084,22.72500038,23.30999947,22.77499962,3523400,20.13179016,wait or hold,0.029114909649969434,0.2840039211921704,0.6388358577374333,0.6659278108675196,25.040085540106787,23.470284317848716,23.354331834472813,0.2752184133289724,0.2795441358715487,0.2031288860226132,-0.6531761336470545,-71.6494867573598,43.95029318062083,47.425342618597696,47.425342618597696,23.782999929999992,23.449807608076902,0.1,0.0,0,-0.25488901154220095,-0.027091953130086277,1.5698012222580715,0.0764152498489355,0.6748079880769033,-0.17160736963442413,0.1599382501512121,0.08293797220879284,0.23196201743671252,0.11135940008188916,0.24468287338019512,-0.034484667122498314,0.04548763195495442,-0.1038080133864514,-0.44091172825690295,-0.6083511727999537,0.3147026862540465,-0.8690552181148158,-0.43298973514719596,-0.13408030664522252,-0.05637618074240647,0.03026822878333757
4/21/2005,23.56999969,22.79500008,22.875,23.53499985,3187600,20.8035984,wait or hold,0.05485452349835995,0.23817404165340733,0.6300889353503969,0.6638793642707221,23.488602873054155,22.01606646976607,21.917308964476753,0.46590607187838967,0.3790115747865433,0.29107023040457825,-0.6643379325882321,-55.97938015006921,53.7359104806014,52.60116321918967,52.60116321918967,23.727333197333326,23.49192296653844,0.1,0.0,0,-0.18331951815504738,-0.033790428920325244,1.4725364032880854,0.08794134438196505,-0.043076883461559135,-0.11785720556280144,0.1547249054396478,0.08886238709056027,0.22903417794619085,0.09891584707216206,0.24388299208221587,-0.09430795731588348,-0.019290738590064582,-0.10617622579131913,-0.24197685042691397,-0.4307226821952683,0.3566478669751676,-0.8541349687660272,-0.11958760300138427,0.01801079308184672,-0.05730031416084258,-0.01703794857060259
4/22/2005,23.95499992,23.31500053,23.57999992,23.67499924,3497600,20.92735291,wait or hold,0.0855636152285264,0.20765195636843065,0.623242662227252,0.6615567208764841,25.357857820775177,20.89372730384116,21.041204273684404,0.5044384577424392,0.4151876476499338,0.35312893902725606,-0.43154392861763924,-44.24020429882759,55.40900788851937,53.509125038557976,53.509125038557976,23.630333202666655,23.53134602884613,0.9,0.5,1,-0.12208834113990424,-0.0383140586492321,4.464130516934016,0.06205870862267776,-0.1436532111538682,-0.07187133008567725,0.1512042177693813,0.095930612788248,0.22674253890723595,0.09062860761106384,0.24297604190063415,-0.022231753335228754,-0.06928551926431448,-0.03333662802831305,-0.1696247047001329,-0.30537328233115946,0.2624570869714835,-0.8513865145879564,0.1151959140234482,0.04469118297057695,-0.03802629571502503,-0.023665587324465664
4/25/2005,24.68499947,23.97500038,24.20000076,24.15500069,3542400,21.35163879,wait or hold,0.14693847703214047,0.19550926050117243,0.6235123581765656,0.6593822752219523,29.098769889967357,19.22785458548365,20.99721957681294,0.6133096228780862,0.5278847174996384,0.4405068282634472,0.015000230264714531,-32.47546264657768,61.04424311480214,56.58018938979493,56.58018938979493,23.57166659199999,23.569422943076898,0.9,1.0,1,-0.04857078346903196,-0.03586991704538667,9.870915304483706,0.08737788923619116,-0.5855777469231036,-0.01665812960124191,0.15310646435558084,0.11005709295914157,0.22683281368228192,0.08733166942955672,0.24212696025249625,0.1220132795328237,-0.14349209042755606,0.09830824562611884,0.05576943499927611,-0.12888288766724731,0.35459736948445175,-0.8419631735953095,0.3504907470684464,0.134934178343872,-0.0010549811262788866,-0.052786914845068034
4/26/2005,24.20000076,23.77499962,24.15500069,23.875,3822800,21.10413551,wait or hold,0.171013751186468,0.19061015863823147,0.6183567419811276,0.6570374689015186,28.08406631772472,20.198350488970753,20.664023857291475,0.658151870543788,0.5919666503881046,0.5162367393257759,0.18598541861765483,-39.338224790945596,56.20986312523189,54.325801837354845,54.325801837354845,23.497666551333324,23.560576806923052,0.9,0.9693888663105594,1,-0.01959640745176347,-0.03868072692039104,7.885715828753966,0.07572991106232874,-0.3144231930769479,0.005102223743394418,0.15091884417810397,0.11559843143153081,0.22510708478849994,0.086001484093154,0.24121135584961317,0.0828875402953666,-0.10026119257315314,0.04997243341419533,0.18393330077620829,0.024080316274710967,0.31220863597734305,-0.8474601194483822,0.21323550418108805,0.0686891693838605,0.01310161920734676,-0.03491874973513165
4/27/2005,24.39999962,23.02000046,23.95000076,23.88999939,8047600,21.11738777,wait or hold,0.18912378006524477,0.19031288292363413,0.612865758362446,0.6545128735950965,25.031752231024317,23.949258601241247,19.345881234182094,0.8237247523239641,0.6983954152486129,0.6073160772871944,0.2941470703529525,-24.20091678238587,56.42553297685636,54.43054777007715,54.43054777007715,23.422666551333325,23.56288447884613,0.9,1.0,1,-0.001189102858389357,-0.04164711523265052,1.0824936297830696,0.09107933796141854,-0.3271149111538705,0.01892648873655367,0.14861013913766796,0.1197667660938384,0.2232690990411461,0.08592076893199008,0.24022554710374222,-0.03480598941510171,0.06682361930516145,-0.11567302169784932,0.39679083049722497,0.20804708913972325,0.36806749462221733,-0.8471656529073922,0.5159816643522825,0.0717671207521613,0.022056788305858444,-0.035755090895221
4/28/2005,23.97500038,23.39500046,23.69000053,23.64500046,6088200,20.90082741,wait or hold,0.18161345093208325,0.18857299652532394,0.6029741286630284,0.6515672550908408,23.85810141154834,22.82636210067778,18.121891655580527,0.7089736649762601,0.7302834292813376,0.668799753284266,0.3603824445588337,-31.65902762522202,51.584176939040155,52.319934325129296,52.319934325129296,23.361666617333324,23.576153756538435,0.9,0.5,1,-0.00695954559324069,-0.04859312642781244,1.0317393108705595,0.06148367599707161,-0.06884670346156341,0.014592767354926206,0.14320414053966868,0.11803813465649249,0.21995809400667898,0.08544836165433267,0.2390753364239917,-0.0800605417541217,0.01680401206879667,-0.1169087923384785,0.4605668585626743,0.33223500826854524,0.26036445730126223,-0.8519754476699365,0.3668194474955595,0.009746903145673613,0.027540700272813634,-0.018736092275298266
4/29/2005,24.20000076,23.48500061,24.04999924,23.77499962,4975400,21.01574326,wait or hold,0.18402980380374956,0.18766435798100906,0.5949642832919793,0.6483322327671996,24.304062884910216,21.48877463983654,17.266605037852877,0.8134914172171934,0.7820632781724727,0.7254315157283693,0.36622075508824636,-27.70167097572322,54.02606727609473,53.35351867897263,53.35351867897263,23.370333227999993,23.62461530384613,0.9,0.5,1,-0.003634554177259497,-0.05336794947522039,2.8152882450736776,0.056631762444103395,-0.15038431615386827,0.017089904412735946,0.13948795207196762,0.11859429983429282,0.2172769748023875,0.08520165160388848,0.23781211879397346,-0.06286480814874462,-0.042779038908735356,-0.07348278532589425,0.5641265563449442,0.44662278064028715,0.24270761870434554,-0.8494233170181693,0.4459665804855357,0.04011870177770982,0.02802407915249705,-0.02410914430629152
5/2/2005,24.71999931,23.29999924,23.47500038,24.70499992,5359400,21.83780098,wait or hold,0.2580130274723125,0.2017340918792698,0.6013279859805465,0.6456458320324484,25.675660320744843,19.095544569848773,17.0830764616713,1.0,0.8408216940644847,0.7831266048964269,0.26008827552942293,-0.45178889760678975,67.64558482042425,60.0289833525281,60.0289833525281,23.39866650999999,23.69999988384613,0.9,1.0,0,0.05627893559304267,-0.04431784605190192,6.58011575089607,0.05769508916805777,-1.00500003615387,0.062086169620829024,0.14653154083731335,0.13562281136849208,0.21940708402401965,0.08902181175612456,0.2367631279586917,-0.009977674328348285,-0.14938586159183787,0.018183567378950105,0.6816433881289683,0.5631583155044384,0.24657722357996525,-0.8311656431087178,0.9909642220478643,0.23627672998953253,0.01923691395997973,-0.08042542066568159
5/3/2005,24.54999924,24.10000038,24.42499924,24.26000023,5300200,21.44444466,wait or hold,0.27753855447484455,0.21689498439838478,0.5991991609560081,0.6429913230927187,24.427410281131547,18.167193985365742,16.912657069502693,0.8013066277687918,0.871599348328662,0.8273629766125445,0.2829558489411923,-13.855395269630263,58.04612662172737,55.90625856289156,55.90625856289156,23.43633321266666,23.762307608461512,0.9,0.5,1,0.06064357007645976,-0.043792162136710555,6.2602162957658045,0.044236371716117495,-0.49769262153848715,0.06536410004192716,0.14694067442904934,0.14011694727237578,0.2186945067654753,0.09313823910952412,0.23572659029179444,-0.05810868213106557,-0.19073938935703227,0.010394627184822314,0.743198696657323,0.652509234494633,0.1975989392028581,-0.8399018330108361,0.7228920946073947,0.11513077159674023,0.021130218874333195,-0.046995583263852
5/4/2005,24.5,23.72500038,24.38500023,24.39500046,8089400,21.56377792,wait or hold,0.30044264526410913,0.2336045165715297,0.5984194212600471,0.6404439831879045,22.892098105915917,20.06657752939608,16.174417212973015,0.8479426900238635,0.8830831059308855,0.855223041271715,0.31786763805883567,-9.78912290199642,60.052529491946814,56.873918670478275,56.873918670478275,23.53566653066666,23.83999993384613,0.9,0.5,1,0.06683812869257943,-0.04202456192785742,2.8255205765198355,0.027860064659170458,-0.5550005261538686,0.07001634118839695,0.14831637682606535,0.14538871774743112,0.21843350608739165,0.09767514715852754,0.23473190019216372,-0.11730845776880794,-0.10613104048789057,-0.07323364761589679,0.7661662118617698,0.708782438734757,0.13800311018377553,-0.8372515218474516,0.8042175419600717,0.1435653912023822,0.024020716292449507,-0.05077197974050163
5/5/2005,25.04999924,24.53499985,24.70000076,24.96999931,5599600,22.07203865,wait or hold,0.3608320632069706,0.2590500258986179,0.6058368233188638,0.6384661573419026,26.19704021205851,18.980760706637874,16.160034911905132,1.0,0.8830831059308855,0.8691530736013002,0.48708807482354644,-2.1917791322948035,67.72294994458997,60.81803115443038,60.81803115443038,23.67699979266666,23.908653773846133,0.9,0.9583320034603529,1,0.10178203730835267,-0.0326293340230388,7.216279505420637,0.013930032329585229,-1.0613455361538655,0.0962599365040897,0.1556285719052657,0.1592883810628667,0.2209163179501179,0.10458401419806052,0.23395959501840413,0.010126102015029392,-0.1544989274460825,0.033672938674209174,0.7661662118617698,0.7369190408548187,0.08730964052316081,-0.825963201293566,0.956164417354104,0.25946284040356393,0.03803120523968362,-0.08413839794347822
5/6/2005,25.20000076,24.70000076,25.12000084,24.86000061,5217200,21.974823,wait or hold,0.3952588961399428,0.286291799946883,0.6099583103465136,0.6368369248176589,26.35901685122763,18.172391895123504,16.318884872899037,0.9160206453645245,0.9213211117961296,0.895237092698715,0.6801321873235402,-13.178300796226432,64.93997455507883,59.693321814357226,59.693321814357226,23.880333201999992,23.927499918846134,0.9,0.8709689340960418,1,0.10896709619305983,-0.026878614471145257,8.186624956104126,0.026084019097414646,-0.9325006911538658,0.10165606375942948,0.1601042891135358,0.1672123088483246,0.22229589489676038,0.11198059614111089,0.2333234092236467,0.016371724795960274,-0.19050784762152695,0.05729899542988637,0.8426422235922579,0.7896048961114024,0.13153981493287237,-0.8281226848927258,0.7364339840754712,0.22641334089319298,0.054014158931443346,-0.07564795981006456
5/9/2005,25.09499931,24.78499985,25.01000023,24.97999954,4281000,22.08089066,wait or hold,0.4272995992215769,0.3144933598018218,0.6146773589630286,0.6355705080287088,25.630191610823204,17.669926345424138,16.466388408107665,0.9800172873590262,0.9653459775745171,0.9302915351366161,0.8325293374411942,-8.888936817052135,66.68251291436837,60.55040890792877,60.55040890792877,24.052999878666657,23.921730702692287,0.9,1.0,1,0.1128062394197551,-0.020893149065680294,7.960265265399066,0.03505444243790101,-1.0582688373077147,0.10453933942009486,0.1647627062512529,0.17458702780398583,0.22387549241526594,0.11963777544299226,0.23282889640280424,-0.011730892644044033,-0.21289025724980049,0.05178756968349019,0.9306919551490329,0.8604096779008215,0.1641845262080941,-0.8257668777672623,0.8222212636589572,0.25159878078426345,0.06663177550385635,-0.08393565392831492
5/10/2005,25.05999947,24.41500092,24.89500046,24.51499939,3057000,21.66984749,wait or hold,0.41043941198359235,0.33368257023817594,0.6106838330914464,0.6341482472559928,24.134912034451077,19.98571833530427,15.961946602032915,0.3877696653677249,0.7612691993637588,0.8457803672501875,0.8837794142941355,-28.482377393756153,54.448278847535555,55.6152384888899,55.6152384888899,24.13399988866666,23.90173068499998,0.9,1.0,1,0.07675684174541642,-0.023464414164546477,4.149193699146807,-0.08451116788642865,-0.6132687050000207,0.0774654990451582,0.1627615209480624,0.17070636569419473,0.22253874764540638,0.12484795621768985,0.23227352932868883,-0.06938705981701387,-0.1097329264389928,-0.041004737490001886,0.5225383987275165,0.6897096357715582,-0.27093260030109867,-0.8348957147219882,0.43035245212487694,0.10657916857315342,0.0708749901475545,-0.054611655030886275
5/11/2005,24.64999962,24.14999962,24.25,24.46999931,4963600,21.63007736,wait or hold,0.3889627597621761,0.34473860814297597,0.6053244824688591,0.6325009947329757,23.01403181031878,21.518988761478884,15.06160442848091,0.3326472028390293,0.5668113851885938,0.7062958762193906,0.8906910851470755,-33.48630043766517,53.3433056717038,55.146802464851525,55.146802464851525,24.246999867999993,23.881922942692288,0.9,1.0,1,0.044224151619200125,-0.02717651226411666,1.4950430488398965,-0.13948449103079685,-0.5880763673077105,0.05303277849317434,0.15987243877441304,0.16576314475931442,0.22074482314235855,0.1278498491995288,0.23163030705075882,-0.11260684199329662,-0.0414331459463978,-0.10562823199713733,0.13362277037718684,0.40797162302354795,-0.47098873965717813,-0.8357791518418893,0.33027399124669676,0.09281421117883726,0.07144723715236911,-0.05295156545095292
5/12/2005,24.33499908,22.5,24.29999924,22.73999977,10188000,20.1008625,wait or hold,0.22969881735193454,0.3217306499847677,0.5720400497859934,0.6290457271080392,19.22549311377594,31.764419599443666,15.742275127535686,0.0,0.24013895606891833,0.47321741614415447,0.5991469665000118,-91.11112213168411,27.92519441999771,40.88832417767312,40.88832417767312,24.193999862666658,23.794422957307674,0.1,0.5,0,-0.09203183263283315,-0.057005677322045756,-12.538926485667726,-0.23307846007523614,1.0544231873076733,-0.04929827294615052,0.1366567513889716,0.12910580886834988,0.20960359287685004,0.1216028166987102,0.23028108761930266,-0.25868829985624997,0.4149512369643873,-0.4473285620148354,-0.5197220878621637,-0.06281234493361221,-0.8115911817702514,-0.8697423317084132,-0.8222224426336823,-0.32617010270628344,0.04730904362190791,0.055283582432700484
5/13/2005,22.92499924,21.20000076,22.92499924,22.49500084,8787000,19.88430023,wait or hold,0.08275775970811594,0.2739360719294373,0.5366227691062342,0.6237639014274725,16.64207953592242,37.6228629659521,17.37951302922462,0.0,0.11088240094634337,0.2920499085452489,0.04164682347060378,-67.62499800000006,25.887154631665936,39.3371566963917,39.3371566963917,24.11533330266666,23.714999933076907,0.1,0.062499997070308774,0,-0.19117831222132137,-0.08714113232123832,-20.980783430029682,-0.18116750759890554,1.2199990930769076,-0.12375932182038474,0.11320268215436102,0.0952847968758912,0.19774843875146608,0.10862581628774448,0.22821863034671575,-0.3583015945706922,0.6759165494951445,-0.6528716406682322,-0.7782351981073135,-0.4287438774518486,-0.6226794669838127,-0.8745521264709575,-0.3524999600000013,-0.3717510426758751,0.0011512051165307735,0.06619447284758362
5/16/2005,22.44499969,21.75499916,22.36499977,22.41500092,4869400,19.81357574,wait or hold,-0.03969183134008958,0.21121049127553193,0.5019120558854553,0.6168003001420221,15.669341563025915,35.42378758134844,18.8998053665072,0.0,2.590520390792032e-16,0.1460249542726246,-0.5077502472352791,-69.62499600000002,25.18688849210342,38.819291136746735,38.819291136746735,23.99933331799999,23.66769225846152,0.1,0.0,0,-0.2509023226156215,-0.11488824425656685,-19.754446018322525,-0.14602495427262435,1.2526913384615206,-0.16861328411327914,0.09160743216032197,0.06710091720523037,0.18612979251052209,0.09159480735234893,0.22549947015795446,-0.39580919118810176,0.5779583788482179,-0.6230126690306623,-0.9999999999999994,-0.723692657236296,-0.4947904629462023,-0.8761226769881371,-0.39249992000000045,-0.38696848326262356,-0.0443357451238241,0.0683487808983283
5/17/2005,23.06999969,22.27499962,22.27499962,23.05500031,3652000,20.37929916,wait or hold,-0.08412193356395647,0.15214400630763425,0.47931577199571507,0.6089433619514077,19.656502260134822,33.17999001754,19.378031872731643,0.28329996715048267,0.09443332238349449,0.12022913832805954,-0.9222944661176378,-53.62501125000003,40.26770366058884,45.05153346110851,45.05153346110851,23.944666671999993,23.620576859230752,0.1,0.0,0,-0.23626593987159072,-0.12962758995569268,-13.523487757405178,-0.02579581594456505,0.5655765492307516,-0.15762105912083657,0.08013597322567456,0.05687456492333798,0.17856618449114925,0.075557302035002,0.22243147808636454,-0.24206910984775742,0.4780080514553622,-0.471300746837391,-0.8111333552330111,-0.7757963848100703,-0.05725865885908332,-0.863558272261743,-0.07250022500000053,-0.20383451050294987,-0.07865764682690635,0.023070247569987323
5/18/2005,23.61000061,22.90500069,23.19000053,23.21500015,4520600,20.52072716,wait or hold,-0.1052097188644261,0.10067326127322217,0.4602967461726415,0.6004485770001633,22.904388160251948,31.287366341290813,19.09882264904242,0.3499747990307013,0.21109158872706157,0.16566036352756056,-1.1253530904117532,-49.625015250000004,43.58459747744249,46.518295753364214,46.518295753364214,23.89966672266666,23.602115338461523,0.1,0.0,0,-0.20588298013764827,-0.1401518308275218,-8.382978181038865,0.04543122519950102,0.3871151884615216,-0.13480283038409313,0.07194508066884375,0.05202084839932608,0.17219998476831022,0.061582162874006974,0.21911441840637225,-0.11683456817748328,0.39370082199590195,-0.3461391655481857,-0.5778168225458771,-0.6840320387539293,0.201947189614319,-0.8604171712273837,0.007499694999999917,-0.16073381067539938,-0.09546974509178052,0.011310249389105964
5/19/2005,23.62999916,23.17499924,23.29999924,23.60000038,3912400,20.86104584,wait or hold,-0.08982036472345456,0.06257453607388683,0.4481676970317423,0.5917461434247175,22.19856650886333,30.09426140467343,18.8131211417776,0.5072608254451192,0.38017853054210127,0.2729194470348309,-1.0856325600293957,-40.00000950000002,51.19298819235476,49.978390156869516,49.978390156869516,23.896666717333325,23.628846095769216,0.1,0.0,1,-0.1523949007973414,-0.14357844639297523,-7.895694895810099,0.10725908350727037,0.02884571576921502,-0.09463218079090319,0.06927818618476533,0.055562972971612945,0.16814005288760292,0.05123774322044938,0.21571627569921703,-0.1440501951209735,0.3405537685573856,-0.33427474907176646,-0.23964293891579802,-0.4673845762784118,0.4269480069239091,-0.8528588847898376,0.19999980999999956,-0.05905919642613233,-0.09218111126870354,-0.012298493304362057
5/20/2005,24.0,23.53499985,23.77499962,23.93000031,5763000,21.15275192,wait or hold,-0.05041489784328235,0.039976649290452984,0.44152692282614936,0.583161565727551,24.509444693636027,28.882088195520495,18.054310313666402,0.6354020745403759,0.4975458996720657,0.3852326733534483,-0.6947060976764554,-31.750011250000032,56.993059256490426,52.79733618125731,52.79733618125731,23.907000096666657,23.67038455461537,0.9,0.5,1,-0.09039154713373533,-0.1416346429014016,-4.372643501884468,0.1123132263186174,-0.25961575538462967,-0.048066384741718426,0.07079102551873495,0.06463281899894491,0.1659172000821878,0.04510205172556714,0.21236415357811955,-0.05494553466618124,0.2865573158176644,-0.24849518249841385,-0.004908200655869277,-0.24052849389618958,0.44534078801769583,-0.8463803588021773,0.36499977499999936,0.023775320842753134,-0.05981462537201099,-0.03130712554498605
5/23/2005,24.73500061,24.22500038,24.47500038,24.625,4221400,21.76709747,wait or hold,0.03647424615738615,0.03927616866383962,0.4457382421566649,0.575308267678844,29.17502367692566,26.864695054230413,17.059192632250387,0.878574915585408,0.6737459385236346,0.5294893059385415,-0.20047059294115854,-14.375019000000044,66.71264813226621,58.14683229076849,58.14683229076849,23.901666768666658,23.778653805769217,0.9,0.5,1,-0.0028019225064534747,-0.1295700255221791,2.3103286226952484,0.14425663258509314,-0.846346194230783,0.01771522795212377,0.08018077494541354,0.08463185009605567,0.16732684641234785,0.04491185991408342,0.2092975829160202,0.12495353308668222,0.19669221024646522,-0.08577758682079983,0.34749187704726836,0.050848537986663445,0.561587617753122,-0.8327361936258973,0.7124996199999993,0.1809698623591609,-0.018894738809771994,-0.06997067077268926
5/24/2005,24.93499947,24.43000031,24.62999916,24.90999985,2862400,22.01902008,wait or hold,0.1268690835789208,0.056794751646855865,0.45342494763784913,0.5683430577251392,29.64497137747626,25.65410230249236,16.356170467535335,0.9692550675146506,0.8277440192134785,0.6786166625760099,0.20586769023531204,-7.250022750000085,69.96058531547502,60.14168137782394,60.14168137782394,23.94500007666666,23.8755769003846,0.9,0.5,1,0.07007433193206493,-0.11491811008729003,3.9908690749839018,0.14912735663746857,-1.0344229496153972,0.07244679649636598,0.0915841879364816,0.10543777683642763,0.16989980166037588,0.049668438334065756,0.2065777945714391,0.1430741465248977,0.14276615923932257,-0.04485963942586335,0.6554880384269559,0.35206371104936385,0.5793129105688402,-0.8271411047581383,0.8549995449999983,0.23958835300103187,0.014747758125735366,-0.08236429083506924
5/25/2005,25.25,24.65500069,24.89500046,25.0,3662600,22.09856606,wait or hold,0.2034249236125909,0.0861207860400029,0.46120318788239345,0.5622204074747288,30.904960043302314,24.266594370368487,16.047317234080452,1.0,0.9492766610333533,0.8139466618046816,0.5419264414411984,-6.172840664533066,71.00296828997676,60.777452496878276,60.777452496878276,23.985333379333326,23.940961544999986,0.9,0.5,1,0.11730413757258801,-0.10101721959233534,6.638365672933826,0.13532999922867173,-1.0590384550000138,0.10791735360253996,0.1024030870737318,0.12305842027937652,0.17250339615305066,0.057630930647133205,0.20418701053194965,0.19165778151921065,0.08095939274984598,0.019601841626650574,0.8985533220667052,0.6254102656814302,0.5291022647748598,-0.825374230714655,0.8765431867093385,0.2582704395982034,0.04257150985105418,-0.08398636912303492
5/26/2005,25.30999947,24.88500023,25.0,25.27000046,2927800,22.33723068,wait or hold,0.2826247762164158,0.1254215840752855,0.4719111339046975,0.5570595819337028,30.234433227291895,23.297332293081674,15.826712396696697,1.0,0.9897516891715507,0.9018491754881162,0.8499706957059026,-0.9732122276019524,74.14330951408874,62.699661252220416,62.699661252220416,24.005333455999995,24.036923115769216,0.9,0.8217822587979839,1,0.1572031921411303,-0.08514844802900523,6.937100934210221,0.08790251368343449,-1.2330773442307823,0.13788236561905243,0.11475356483902632,0.14128762869577316,0.17608764508533126,0.06830173250387772,0.20217180162249937,0.16580308062665017,0.037783455884194295,0.026875474159133494,0.9795033783431,0.802960324026323,0.35650655625949335,-0.8200736083878859,0.980535755447961,0.3147543995468054,0.06807582069050366,-0.09545494143434374
5/27/2005,25.5,25.11000061,25.36000061,25.45000076,2058200,22.49634361,wait or hold,0.3558141077317174,0.1715000888065719,0.483869430000734,0.5528770616446183,30.936323899621986,22.412652503868273,15.83746134222533,1.0,1.0000000000000004,0.9509245877440583,1.1151913320000197,-1.162773228769181,76.15207572822872,63.96746767201236,63.96746767201236,24.04466679933333,24.11057699692306,0.9,0.797059316643373,1,0.1843140189251455,-0.06900763164388424,8.523671395753713,0.04907541225594214,-1.3394237630769403,0.1582431550950294,0.12731577188086152,0.15813341229493028,0.1800904211475971,0.0808127912717227,0.20053860319648864,0.19286713378465348,-0.0016247492034510147,0.06550543191789271,0.9999999999999996,0.9020853881936772,0.21520893098091665,-0.8165398603009191,0.9767445354246163,0.3520087960004117,0.09003457971760498,-0.10246280961815346
5/31/2005,25.09000015,24.70999908,24.85000038,24.94499969,4525000,22.04994774,wait or hold,0.36881641687459066,0.2109633544201757,0.4860798456479749,0.5490598834927995,28.70867605098666,24.691077294403993,15.243616098406365,0.7631127552378637,0.9210375850792883,0.9359810864116733,1.1723529095294296,-12.906986234723165,60.71348994430837,58.01018542178147,58.01018542178147,24.042333475999996,24.159423168076906,0.9,0.5,1,0.15785306245441497,-0.06298003784482464,4.017598756582668,-0.014943501332384979,-0.7855765219230939,0.13837043161353102,0.1320069770504877,0.16112611740065175,0.18083030906886766,0.09152770570182667,0.19904806425860877,0.10697173415976025,0.09986805363546214,-0.04420882277693816,0.8420751701585754,0.8719017287934803,-0.0177654639745618,-0.8264539913608598,0.7418602753055368,0.1769545043739713,0.09476723296855827,-0.06596615555039809
6/1/2005,25.97500038,24.56500053,25.27499962,25.79500008,3884600,22.80130196,wait or hold,0.4426065309312257,0.2572919897223857,0.5008418966265822,0.5463044376611276,33.09306517790801,21.512455475206583,15.669626630315426,1.0,0.9210375850792883,0.9285093357454808,1.2304412444411916,-3.7696400905682106,71.90020428933762,64.07475839672752,64.07475839672752,24.127666855333327,24.222500067692295,0.9,0.6000038400591633,1,0.18531454120884,-0.04546254103454539,11.580609702701427,-0.007471750666192434,-1.5725000123077066,0.15899456794372724,0.1456406382318558,0.1781101814359316,0.18577158028448015,0.1041066789623557,0.19797211256340974,0.27602846204368237,-0.04172417224591807,0.13993603587205938,0.8420751701585754,0.8568098990933819,0.009425353443992535,-0.8097668677722689,0.9246071981886357,0.35516152589034955,0.0995766164555898,-0.11782174364816389
6/2/2005,26.0,25.47500038,25.89999962,25.78499985,3712400,22.79246902,wait or hold,0.4945776086345006,0.3047491135048087,0.5134668109462801,0.5444279169003704,31.70237706139085,20.456478841910076,16.09042905776432,0.99536585745505,0.9194928708976384,0.9240011033215596,1.3131029737353046,-4.4791705008686975,71.62028501993589,63.95772096140545,63.95772096140545,24.215333557999998,24.2959616003846,0.9,0.5,1,0.1898284951296919,-0.030961105954090296,11.245898219480775,-0.004508232423921177,-1.4890382496153975,0.16238464033874966,0.1569269341377022,0.19007221893891546,0.18999749210512773,0.11699205508419963,0.19723936519076868,0.22240521472700703,-0.08876282311157246,0.13178645110945975,0.8389857417952755,0.8477039373141524,0.020210039261568724,-0.8099631912985726,0.9104165899826262,0.3517223896410495,0.10642053712366328,-0.11232189666053549
6/3/2005,26.13500023,25.57500076,25.92499924,25.83499908,2109800,22.83666039,wait or hold,0.533648010231655,0.350528892850178,0.5250586511148967,0.5433210544691598,31.29696919123856,19.364572120677636,16.623481717250367,1.0,0.9984552858183505,0.961228194569955,1.3632795822941333,-6.849339650960405,72.25045634046951,64.30874563278556,64.30874563278556,24.42166684533333,24.370769280769217,0.9,0.8151253989844687,1,0.18311911738147696,-0.0182624033542631,11.932397070560924,0.037227091248395516,-1.4642297992307824,0.1573457594173182,0.16681018461372954,0.1990649439278056,0.1938776051222264,0.12942200508168722,0.19680715545703897,0.2067731788829481,-0.13740198558771077,0.1485013857823665,0.9969105716366997,0.9228971479084116,0.1720911199583508,-0.8089816113603041,0.8630132069807919,0.36203722325321697,0.1105748747028803,-0.11068710395170467
6/6/2005,26.22999954,25.80500031,26.09499931,26.05500031,2055800,23.03112793,wait or hold,0.5757271892402187,0.3955685521281862,0.5383839204497036,0.5430389211712043,30.923087432116077,18.555097727399293,17.22157973723644,1.0,0.9984552858183505,0.9798417401941528,1.3848236183529572,-4.4247593815375055,75.08990823072688,65.88323494749602,65.88323494749602,24.659000143333333,24.463461582692293,0.9,0.8863642042499555,1,0.1801586371120325,-0.004655000721500713,12.367989704716784,0.018613545624197703,-1.5915387273077073,0.15512237774053794,0.17740066560897527,0.20875019079278445,0.1983379453486478,0.14165100051886492,0.1966969875137181,0.19235675164919241,-0.17346015408263415,0.1591072337199977,0.9969105716366997,0.9604937532055415,0.10435364541044834,-0.8046625689718035,0.9115048123692497,0.40830347354702434,0.11235859825809524,-0.1190763303710336
6/7/2005,26.24500084,25.37000084,26.125,25.45999908,3653400,22.50518036,wait or hold,0.5546697982460209,0.4273888013517532,0.5403255324648057,0.5428838645045545,28.300146632282996,21.198059778475752,17.016336191942138,0.6126371216124115,0.870879040537471,0.9253603903658119,1.48463268232355,-23.50304565106084,56.7631802781467,58.381976361456495,58.381976361456495,24.862000020666663,24.528269254230754,0.9,0.5,1,0.1272809968942677,-0.0025583320397487563,7.1020868538072435,-0.05448134982834085,-0.9317298257692457,0.11541018050518259,0.17903247811770173,0.20390347004118237,0.1989878571783803,0.15029071247056836,0.19663644069352082,0.09121933518899206,-0.05572897968755508,0.030892565904698133,0.7417580810749409,0.8504494958186974,-0.16164960406509643,-0.8163435742715466,0.529939086978783,0.18787955322077,0.12062222063331762,-0.07559716239665382
6/8/2005,26.56500053,25.44000053,25.45999908,26.22999954,5831600,23.1858139,wait or hold,0.5932752687776706,0.4605660948369367,0.5534946538430567,0.5434902170164673,28.31530964199949,18.970113464704202,17.21255335364621,0.8867154745031571,0.8331175320385235,0.8792389612021676,1.5478974055588424,-9.882031342825755,68.40540666556096,64.08146215228896,64.08146215228896,25.073666635999995,24.586923085769214,0.9,0.5,1,0.13270917394073384,0.010004436826589469,9.34519617729529,-0.046121429163644145,-1.643076454230787,0.11948685330317321,0.18880993297203852,0.21278918314793271,0.2033959303177808,0.1592988838722187,0.19687321036817074,0.0918040024558191,-0.15497321056959878,0.08550798987415953,0.6662350640770458,0.7572910399815229,-0.13122660327414515,-0.8012270013964542,0.8023593731434848,0.35535851524417783,0.1258601796091019,-0.12247249171514618
6/9/2005,27.07999992,26.26499939,26.35000038,27.07500076,4287400,23.93275642,wait or hold,0.6841681625004021,0.5052865083696298,0.5781681913759122,0.5454718823952325,30.85780215254606,17.47562487510203,17.960743089878772,1.0,0.8331175320385235,0.8561782466203456,1.6322502465000177,-0.14102002542406167,76.50510643171098,69.08497341560562,69.08497341560562,25.33100001,24.695192336923064,0.9,0.5,1,0.17888165413077228,0.03269630898067977,13.382177277444029,-0.023060714581822128,-2.3798084230769376,0.15416333721208098,0.20647074946142707,0.23370974611323603,0.2116548532123783,0.17144119892980703,0.19764701480993896,0.1898394304389639,-0.22154544784491137,0.1838007623363047,0.6662350640770458,0.7107118120629359,-0.04730521620579964,-0.7846380210188686,0.9971795994915189,0.5023863180330863,0.1328441146956032,-0.17102062883616398
6/10/2005,27.21500015,26.83499908,27.125,27.08499908,2781400,23.94158745,wait or hold,0.7483813385779818,0.5539054744113002,0.6001066619155608,0.5485939690902946,31.02840265549654,16.83701142007194,18.79558494989259,1.0,0.9622384915010529,0.9092083690606992,1.766544206088252,-4.347862207360713,76.58796012883103,69.13975190168516,69.13975190168516,25.563333256666667,24.798653822307678,0.9,0.5,1,0.1944758641666816,0.05151269282526627,14.1913912354246,0.053030122440353655,-2.2863452576923216,0.16587491023472767,0.22111531910365612,0.24848951313694934,0.21899827271074113,0.18464203400304635,0.19886613312230006,0.1964175789493383,-0.24999258805813152,0.20350357527294327,0.9244769830021045,0.8178248050682311,0.2296007124216679,-0.784441734989496,0.9130427558527856,0.5039959797335458,0.14396289013705532,-0.16486172334443783
6/13/2005,27.39999962,26.80500031,26.97500038,27.37000084,2613600,24.19351387,wait or hold,0.812897399963326,0.6057038595217055,0.6238689946493672,0.552895528110267,31.03211634550024,15.859734612091478,19.76419431716812,1.0,1.0000000000000007,0.9546041845303499,1.9020000952647216,-1.0100601673203649,79.04541106267135,70.73174932353744,70.73174932353744,25.79266662533333,24.89096157346152,0.9,0.5,1,0.20719354044162053,0.0709734665391002,15.172381733408761,0.04539581546965077,-2.4790392665384786,0.1754261471379981,0.2362614097817486,0.2633389944242628,0.2269521898814324,0.1987061327400812,0.2005458140168903,0.1965607743323725,-0.2935255424059824,0.22738881858070403,1.0,0.9095176287146314,0.20181832831497792,-0.7788466086248058,0.9797987966535928,0.5507767044411369,0.15517786673461265,-0.17755960474425458
6/14/2005,27.73500061,27.21500015,27.37000084,27.70499992,3169600,24.48963737,wait or hold,0.8809039268602668,0.6607438729894178,0.6500677899408842,0.5584483857813473,32.76175509825486,15.038209818201013,21.000935710611827,1.0,1.0000000000000007,0.9773020922651753,2.1329264682647278,-0.9463939824254317,81.68212785840998,72.52585448941417,72.52585448941417,25.997999953333327,25.000384623846134,0.9,0.5,1,0.22016005387084892,0.09161940415953695,17.723545280053848,0.022697907734825384,-2.7046152961538645,0.18516426587090273,0.25232989955156104,0.2789918663895794,0.235721659194694,0.21365038596820285,0.20271410437329052,0.26325354714454496,-0.3301204979559521,0.2895047739897758,1.0,0.9553640405378316,0.11921724958876201,-0.7722699398187782,0.9810721203514914,0.6034963500318282,0.17429725596677748,-0.19242429974878128
6/15/2005,28.14999962,27.70999908,28.0,27.79500008,3338800,24.56918526,wait or hold,0.9313260933680354,0.7148603170651414,0.6745679497312871,0.5650839663219404,35.51816004005291,14.353023279250959,22.53226973991618,1.0,1.0000000000000007,0.9886510461325879,2.3943086055000222,-9.90236067256569,82.37716278060176,73.00462224149311,73.00462224149311,26.190333301999996,25.108653875384597,0.9,0.5,1,0.216465776302894,0.10948398340934673,21.165136760801953,0.011348953867412748,-2.686346204615404,0.1823897873046012,0.2662336909024283,0.29059739533764684,0.24392254771117905,0.2283438751794198,0.205305178401753,0.3695371790699489,-0.360642243766655,0.3733009474007354,1.0,0.9782872464494317,0.07791671022565438,-0.7705030655789759,0.8019527865486862,0.6175649044788689,0.1959382091208659,-0.19122042860080501
6/16/2005,28.17499924,27.81500053,28.02499962,28.02000046,2695200,24.76808167,wait or hold,0.9781659672032816,0.7675214470927696,0.6996151865641309,0.5727716578437478,34.354350298292744,13.775808578268627,23.97682353245775,1.0,1.0000000000000007,0.9943255230662943,2.532043961352965,-4.29359654812729,84.13310532582173,74.21439200506471,74.21439200506471,26.391666665999995,25.243461608846136,0.9,0.5,1,0.21064452011051205,0.12684352872038307,20.578541720024116,0.005674476933706374,-2.7765388511538625,0.17801790396946449,0.27974442029467794,0.30137839800707855,0.25230655821027015,0.2426422231053984,0.20830708271428922,0.32466208675359653,-0.3863543664954229,0.3590184795267901,1.0,0.9897488494052318,0.05726644054410035,-0.766085880372108,0.9141280690374542,0.6531138981470646,0.20734191258432033,-0.1971638179969708
6/17/2005,28.22500038,27.59000015,28.14999962,28.07500076,5816400,24.81669426,wait or hold,1.008104166328394,0.8156379909398946,0.7224197384137838,0.581323179385273,32.03585488327528,15.237410147479427,24.802390946238962,1.0,1.0000000000000007,0.9971627615331475,2.5889852801765016,-4.098350441189199,84.57152110742567,74.51504372973486,74.51504372973486,26.578666686,25.38211551076921,0.9,0.5,1,0.19246617538849942,0.14109655902851082,16.79844473579585,0.0028372384668531314,-2.692885249230791,0.16436559255693073,0.29083738569569095,0.30826918951136606,0.25993987933908413,0.25570664243253494,0.21164629700526705,0.23526371513781008,-0.32124708689192183,0.2669803442127803,1.0,0.9954796508831321,0.046941305703323,-0.7650061199222221,0.918032991176216,0.6619485265023619,0.21205632966815835,-0.19165132945491814
6/20/2005,28.86499977,28.32999992,28.57500076,28.66500092,4439200,25.33822441,wait or hold,1.06713715584306,0.8659378239205278,0.7516431889456712,0.5910559688256259,36.097097290326325,13.973898008539473,26.18676744421595,1.0,1.0000000000000007,0.9985813807665741,2.753058768823564,-4.651136868573027,88.53585191950948,77.54029913513384,77.54029913513384,26.793000029999995,25.610000170384595,0.9,1.0,1,0.20119933192253225,0.16058722012004523,22.123199281786853,0.0014186192334265657,-3.055000749615406,0.17092437304218833,0.30600673736738204,0.3218566474917339,0.2697217853319136,0.2693638600463306,0.21544677501757037,0.39186029737629857,-0.3775304406083523,0.39662793829901033,1.0,0.998345051622082,0.04177873828293466,-0.7534232951340964,0.9069772626285393,0.7508454294417273,0.22564068060811038,-0.21551351232428873
6/21/2005,28.71999931,28.14999962,28.5,28.25,4899200,24.97138405,wait or hold,1.0681215015380872,0.9063745594440398,0.7707223757673844,0.6013228369410806,33.91207732029917,15.039566437306926,27.070096569418244,0.6660858336127258,0.8886952778709092,0.9436383293187416,2.824176243029445,-17.596565329992835,73.11826590728583,71.14306375678305,71.14306375678305,27.013333384,25.831346291923055,0.9,0.5,1,0.16174694209404739,0.16939953882630387,18.872510882992245,-0.0549430514478324,-2.4186537080769455,0.14129481544804,0.31286526109166557,0.32208321158546016,0.2761081226231239,0.28034308729045954,0.21945580108015306,0.30760857705666567,-0.33006006713724967,0.3174798899922495,0.7773905557418173,0.8873682253467774,-0.16332980526536522,-0.7615705521505538,0.6480686934001432,0.5628631481789252,0.23152880266574405,-0.1735804013211818
6/22/2005,28.83499908,28.28499985,28.5,28.42499924,7096400,25.12606812,wait or hold,1.0706804305929367,0.9392357336738193,0.7898336395049412,0.6120950967712374,33.018238964119924,14.09646461691092,28.005166897883612,0.7204804014508686,0.7955220783545321,0.8695802038366369,2.8193674638235606,-12.589432466578819,75.23950861074252,72.18517244456086,72.18517244456086,27.18866666133333,26.062500073461518,0.9,1.0,0,0.13144469691911742,0.17773854273370382,18.921774347209002,-0.07405812548210478,-2.3624991665384805,0.11853720500806775,0.3193554094898592,0.3226721931243144,0.2825051969549508,0.2892654272050621,0.22366217345450967,0.27314325398008155,-0.37207069110520874,0.318679361171041,0.5910441567090632,0.7377817806676756,-0.23289241665706772,-0.7581349843788856,0.7482113506684238,0.5934854337235851,0.2311306631194705,-0.1698800075581054
6/23/2005,28.95999908,28.25,28.5,28.36000061,4413800,25.06862068,wait or hold,1.0552987291822227,0.9624483327755001,0.805121161782747,0.62312536420354,31.850692680084958,13.028617937520561,29.00046307833901,0.6668294342501874,0.6844652231045946,0.7770227134706158,2.829235042029449,-16.713057497209224,72.75184351129894,71.15730989781024,71.15730989781024,27.36033337866666,26.266538546538445,0.9,0.9880949665533405,1,0.09285039640672255,0.18199579757920692,18.822074742564396,-0.09255749036602123,-2.093462063461555,0.08955209016941645,0.32266878072976546,0.31913182995953315,0.2876223581068009,0.2955680230294959,0.22796929312489822,0.22812408512483406,-0.4196380951045616,0.31625186638947356,0.36893044620918825,0.5508293588754325,-0.3002143704253819,-0.7594110310544631,0.6657388500558157,0.5632817699633519,0.23194764242783728,-0.1521513752696544
6/24/2005,28.67499924,27.79999924,28.45000076,27.95000076,4817000,24.70619583,wait or hold,0.9985148189513069,0.9696616300106615,0.811369546845274,0.6338823645851608,28.940999646318144,16.536621076408846,28.877271868460472,0.33925167149362173,0.5755205023982265,0.6762716079344211,2.7985437052647413,-28.133671731270752,58.514321174639925,64.88146938544085,64.88146938544085,27.50133349066666,26.448653954615363,0.9,0.5,0,0.02885318894064537,0.17748718226011317,12.404378569909298,-0.1007511055361946,-1.5013468053846388,0.04148886883544001,0.3191597785975897,0.306062036263385,0.2897138672946684,0.29752654981211,0.2321697069609554,0.11592985026213909,-0.26337352476964937,0.15999323302437674,0.15104100479645233,0.347327048000847,-0.3300321606653779,-0.7674601075593028,0.43732656537458503,0.37886666772260114,0.22940657444137602,-0.11313298872456345
6/27/2005,28.64999962,28.00499916,28.00499916,28.37000084,5071200,25.07746124,wait or hold,0.9761511758736567,0.9709595391832607,0.8225150610274028,0.6446615552708264,26.829392628081933,15.330068243072276,28.762880030716115,0.2908110425311069,0.43229738275830587,0.5542844953463635,2.644911266911791,-16.761320540884878,66.37800964255459,67.9954405665263,67.9954405665263,27.655666859333326,26.63211551076921,0.9,1.0,0,0.005191636690396018,0.17785350575657644,11.499324385009658,-0.12198711258805761,-1.7378853292307888,0.023718555599319346,0.3194448838547874,0.3009146591255556,0.2934445825246297,0.2978789531296311,0.23637878570886794,0.03450884433732826,-0.31711961695457835,0.13795689377597764,-0.13540523448338881,0.10093114815963156,-0.40731316430740394,-0.7592147075281593,0.6647735891823023,0.4703704770693775,0.21668668303444472,-0.12872007490472637
6/28/2005,28.36000061,27.80999947,28.34499931,28.0,4123000,24.75039482,wait or hold,0.9179898501399073,0.9603656013745901,0.8255603414441843,0.6549987910344084,25.242634650252178,16.48282816267636,28.207953664581673,0.0,0.21002090467491008,0.3821527000106368,2.476455504117677,-35.62149129597857,55.55493049786888,62.7192874716403,62.7192874716403,27.825000253999992,26.788653960384597,0.9,0.5,0,-0.042375751234682846,0.17056155040977594,8.759806487575819,-0.1721317953357267,-1.2113460396154032,-0.012005532757723869,0.31376964100333127,0.28752782955810696,0.2944639230274311,0.2950025277924786,0.24041528906366216,-0.026674619062046157,-0.2657697388603054,0.071254869994267,-0.5799581906501801,-0.24674958387191293,-0.589797159560687,-0.7664785274247155,0.2875701740804286,0.3153311145308437,0.20273950473938784,-0.09402292219139108
6/29/2005,28.32500076,27.89999962,27.95000076,28.23500061,3582200,24.95812416,wait or hold,0.8807069156213743,0.944433864223947,0.8307891688253086,0.6650441041545294,24.078725623791012,15.722823799187474,27.69266489602826,0.12677560294991327,0.13919554849367394,0.26067412425215536,2.2777644558823837,-33.64263961969684,60.34594299970683,64.59823016160739,64.59823016160739,27.958666991999994,26.92750013769229,0.9,0.5,0,-0.06372694860257277,0.1657450646707792,8.355901824603539,-0.12147857575848142,-1.3075004723077086,-0.028040721877222285,0.31002102695410017,0.2789465208641009,0.29621415775207716,0.29067680366301873,0.24433780191300403,-0.07155353967606848,-0.29962425683285376,0.0614205635783982,-0.7216089030126522,-0.49211831463708866,-0.4054625227775438,-0.7618650186915439,0.3271472076060633,0.37054370439698925,0.18628901691157584,-0.10035917306760977
6/30/2005,28.96999931,27.95499992,27.97500038,28.39999962,4697000,25.10398293,wait or hold,0.8546224014570747,0.9264715716705726,0.8369032760611113,0.6748647653077453,28.26298801578368,14.055942424562021,28.112572550813816,0.21446166660846133,0.11374575651945873,0.18720994038580704,2.1008821157353275,-26.327942414754002,63.563317947870225,65.89782633381657,65.89782633381657,28.047000249333326,27.06173089807691,0.9,0.5,0,-0.0718491702134979,0.16203851075336595,14.207045591221659,-0.07346418386634831,-1.3382687219230895,-0.034140677648205164,0.3071362597520402,0.27294272124189667,0.29826072039687657,0.2857997509233299,0.24817259223779353,0.08978654399819774,-0.3738757587535906,0.2038847289108301,-0.7725084869610827,-0.6405050852214224,-0.23073097434551038,-0.7586257744461793,0.47344115170491996,0.4087322403384741,0.1716441659764787,-0.10238669632500375
7/1/2005,29.36000061,28.76000023,28.84000015,29.23999977,4037800,25.84648132,wait or hold,0.8914550624222493,0.919468269820908,0.8545823396226062,0.6851344761043185,29.46781078944013,12.68603666459687,28.948158569003255,0.5999683384470411,0.31373520266847243,0.25047257152713975,2.0595735158529678,-5.594443555503924,75.41222135024827,71.61142521349073,71.61142521349073,28.19066696199999,27.22480781230768,0.9,0.5,0,-0.028013207398658757,0.16944786351828767,16.78177412484326,0.06326263114133268,-2.01519195769232,-0.0012189664270653155,0.31290287162953745,0.2814203917323115,0.3041783972848642,0.28389824128188046,0.2521827283158711,0.1362430490888884,-0.43489843362158276,0.2665744467045885,-0.3725295946630556,-0.5127239401833392,0.2668383409577748,-0.742134974580211,0.8881111288899215,0.5766259144178278,0.16822404903822608,-0.14699364085870892
7/5/2005,30.02499962,29.39999962,29.5,29.97500038,4493400,26.49617767,wait or hold,0.9687860340249586,0.9293318226617181,0.8812011684744796,0.6963384260867544,33.834477625432626,11.683317155744469,30.356492716507564,0.8611386264402113,0.5585228771652385,0.40449772434618914,2.1126764972941423,-2.0533573257820166,81.54024459242709,75.48223309799548,75.48223309799548,28.36433359799999,27.405769347692292,0.9,0.8507471372242239,1,0.039454211363240455,0.18486274238772515,22.151160469688158,0.15402515281904938,-2.5692310323077088,0.04945045508642942,0.32490009006398957,0.29921944503913744,0.3130884635750897,0.2865763552955787,0.2565576678766359,0.30461642692601787,-0.4795647372175684,0.3973087397721837,0.11704575433047637,-0.20161594424946572,0.5971367229089968,-0.7277055152987162,0.9589328534843597,0.6903693134682516,0.17262067363494205,-0.18350293610071655
7/6/2005,30.35000038,29.43000031,30.03499985,29.50499916,3570200,26.08073235,wait or hold,0.9808397175679069,0.939633401642956,0.8967912788185508,0.707793008793402,33.96978981147133,10.62351520135769,31.927726530805497,0.42397475806559287,0.6283605743176156,0.5164291493319024,2.2613971262353196,-30.615983680552105,68.75613115134337,69.0030223059573,69.0030223059573,28.48433354733333,27.561730824615374,0.9,0.5,1,0.04120631592495094,0.1889982700251488,23.34627461011364,0.11193142498571318,-1.9432683353846265,0.05076632171067863,0.32811872245339213,0.30199380764545225,0.3183069094132065,0.2893734004859003,0.26103047497716103,0.30983390072962314,-0.5267737876333081,0.4264074844422556,0.2567211486352303,0.024468955989121577,0.4439513559023909,-0.7369325327650593,0.3876803263889579,0.49997819082928796,0.18493389518100867,-0.14225411817517053
7/7/2005,30.18499947,29.14999962,29.35000038,30.17499924,4500400,26.672966,wait or hold,1.0325531090874627,0.9582173431318572,0.9203864410087235,0.7199413388939279,30.60618574209391,12.250342770526846,32.7065256525717,0.6674858549999356,0.6508664131685804,0.5836477812502414,2.3838676179706155,-6.340620486107811,75.21799384212792,72.6121031138113,72.6121031138113,28.643000157999992,27.762884653461526,0.9,0.5,1,0.07433576595560543,0.2004451021147956,18.355842971567064,0.06721863191833899,-2.412114586538472,0.07564722124586987,0.3370276568748145,0.3138965342407183,0.32620486992878606,0.29441924095884375,0.26577417787099233,0.1801374067814956,-0.45430648899064763,0.3049000140412981,0.3017328263371599,0.16024063667103672,0.2812348190578733,-0.7237791574597542,0.8731875902778439,0.6060307593838459,0.1950737547844057,-0.1731494953980982
7/8/2005,30.69499969,29.70499992,30.29999924,30.22999954,4345400,26.72159195,wait or hold,1.065689798418198,0.9797118341891256,0.9415025989265757,0.732602113971048,32.541466460988374,11.11648403959344,33.87567673986332,0.6863130460660075,0.5925912197105125,0.588119500480377,2.531441167588266,-16.062178850438446,75.69932964516623,72.89114113219236,72.89114113219236,28.79033342999999,27.933461555769217,0.9,0.5163037170356141,1,0.08597796422907256,0.2089004849555277,21.424982421394937,0.004471719230135562,-2.2965379842307847,0.0843907520120879,0.34360838162434915,0.3215235132839873,0.3332730384004312,0.3002553426806909,0.27071798124762925,0.2547594844306291,-0.5048144105616494,0.37962769250018624,0.1851824394210242,0.1692728472068108,0.05288942549399578,-0.7226993970098683,0.6787564229912311,0.6142302706026821,0.20729200469175568,-0.16553338944086282
7/11/2005,30.34499931,29.74500084,29.89999962,30.21500015,3566000,26.70832825,wait or hold,1.0783104461373014,0.9994315565787609,0.9591877781628071,0.7455499931493108,30.687620458799834,10.483192066722498,34.961317035205546,0.7799450144416397,0.7112479718358614,0.6496837361581191,2.5438087412353276,-16.580292414116816,75.23440398145448,72.67368328250573,72.67368328250573,28.933000055999987,28.103846182692298,0.9,0.5,1,0.0788788895585405,0.21363778501349628,20.204428392077336,0.061564235677742274,-2.111153967307704,0.07905920067311634,0.3472953663918825,0.3244283724479593,0.33919276237575,0.3056095660249827,0.27577389357620885,0.18327743070362512,-0.5330245044866475,0.349909535167954,0.42249594367172194,0.2936234849588433,0.2606576260198499,-0.7229938635508583,0.6683941517176637,0.6078402880172464,0.20831596939246855,-0.15331721170702228
7/12/2005,30.875,30.25,30.375,30.67499924,4407400,27.11494637,wait or hold,1.1126050545809285,1.0220662561791944,0.9812641121173478,0.7590194958828301,33.82430110593575,9.82044747997748,36.39252746338805,0.9719827883121479,0.8127469496065988,0.7312153428823589,2.5349117729706236,-6.504088148583146,79.69610959153748,75.12465094862132,75.12465094862132,29.066999943999985,28.29000003499999,0.9,1.0,0,0.09053879840173407,0.22224461623451763,24.00385362595827,0.08153160672423987,-2.384999205000007,0.0878160324420878,0.3539939616297463,0.33232186649276274,0.34658232861379545,0.3117552527946592,0.2810334904563345,0.30422403267505493,-0.5625465698866002,0.4424182764120066,0.6254938992131964,0.45830525484513074,0.33332187362522503,-0.713963206911431,0.8699182370283369,0.6798617888575911,0.20757935106243885,-0.17136268375331531
7/13/2005,30.875,30.10000038,30.875,30.37999916,2578200,26.87169456,wait or hold,1.1032620247304976,1.038305409889455,0.9953025951105268,0.772521504942677,31.32037271731415,10.526251682191619,37.342437972110545,0.6286337396179579,0.7935205141239154,0.7623679285031372,2.483676439029445,-16.097584314092956,70.22970768880162,70.74250570927661,70.74250570927661,29.208999887999987,28.456346144615377,0.9,1.0,0,0.06495661484104254,0.22278109016784975,20.79412103512253,0.031152585620778273,-1.9236530153846232,0.0686032855212837,0.354411492965353,0.33017140746052087,0.351281401393424,0.316164445488605,0.28630578046819055,0.20767559046749273,-0.5311064069127094,0.36426742373555365,0.5870410282478298,0.5212288637703872,0.14998508607048722,-0.7197546193054937,0.6780483137181408,0.55109278002845,0.20333735704791667,-0.14096153513913878
7/14/2005,30.70000076,29.38999939,30.54999924,29.56500053,4598800,26.15082741,wait or hold,1.0183550778341264,1.0343153434783894,0.9936274226575321,0.7851562326364175,27.600976362461303,15.712472598523524,36.63566408634979,0.0,0.5335388426433689,0.6479533855732531,2.4093971412059147,-42.60159825131231,50.78618529401375,60.280795137270815,60.280795137270815,29.28499997399999,28.614230815769226,0.9,1.0,0,-0.015960265644263005,0.20847119002111458,11.888503763937779,-0.11441454292988418,-0.9507697142307734,0.007833041155829834,0.3432742664396251,0.31062861312331114,0.3507206743348896,0.3150810779694646,0.29123941281334487,0.0642601774527416,-0.3000853527498646,0.14743266767507546,0.06707768528673719,0.2901284330607088,-0.3797554515084032,-0.7357545918035562,0.14796803497375377,0.24367620037716042,0.19718745399210613,-0.07685182644665667
7/15/2005,29.95000076,29.06999969,29.61000061,29.34000015,4797000,25.9518013,wait or hold,0.9222786100053142,1.0119079967837743,0.9869090954228668,0.796685056975956,25.417379569626725,17.34624248352941,35.36696227930393,0.0,0.20954457987265296,0.42874898272295303,2.141617802411794,-50.081552514446024,46.62826198858761,57.74201409288525,57.74201409288525,29.350333276666657,28.73384622384615,0.1,0.13613839474076253,0,-0.08962938677846011,0.19022403844691071,8.071137086097316,-0.21920440285030007,-0.6061539261538513,-0.047493986612206496,0.32907272356040607,0.2885149614133322,0.34847186236222893,0.30899712118825695,0.2957412099269723,-0.01993666688020035,-0.227308807519215,0.05448708656850987,-0.5809108402546943,-0.15263199419727358,-0.7611014138816172,-0.7401717770104239,-0.0016310502889205214,0.1690743100097325,0.17501684896235337,-0.054142815244348275
7/18/2005,29.29500008,28.75,29.29500008,29.06500053,2991400,25.70855904,wait or hold,0.8145574386934804,0.9724378851657155,0.9747633910345215,0.8068610361156486,24.043946916983856,19.339653151534915,33.615285264851956,0.0,3.3306690738754696e-16,0.21437449136147668,1.8277795679118007,-59.05380610162575,41.75384189280538,54.70923721778025,54.70923721778025,29.424666594666654,28.810384676538458,0.1,0.0,0,-0.1578804464722351,0.16790235491887284,4.704293765448941,-0.21437449136147635,-0.2546158534615408,-0.09875193861080211,0.3117000205129927,0.26372108089281543,0.3444063555045138,0.29828034795729663,0.29971474549055044,-0.07289456443519626,-0.13851200512079198,-0.027489112036925722,-0.9999999999999993,-0.5856367156090085,-0.7435246440845991,-0.7455705423518794,-0.1810761220325151,0.07995638924779791,0.14903282953924224,-0.030977648972204896
7/19/2005,30.07500076,28.59000015,28.59000015,30.07500076,2710200,26.60193062,wait or hold,0.8014476093431391,0.9382398300012003,0.9781473438739283,0.8166488925457099,27.682552677182525,16.8689337787541,32.947920909811465,0.3750241362595365,0.12500804541984584,0.16969126839066126,1.4514119871470932,-26.890727321520476,59.772800726550244,62.49961205528087,62.49961205528087,29.53833325599999,28.92538474115384,0.9,0.5,0,-0.13679222065806118,0.16149845132821838,10.813618898428423,-0.04468322297081542,-1.1496160188461602,-0.08291424654611657,0.3067159378704376,0.2607036281618589,0.3455390591365892,0.28899502326188053,0.303536726165053,0.06740566122262837,-0.24857060139904152,0.12126127601197823,-0.7499839091603084,-0.6758902079502771,-0.12599275598098225,-0.725742317728929,0.4621854535695906,0.3088759689152314,0.11787173616768332,-0.08995512326380817
7/20/2005,30.49500084,29.61499977,30.25,30.34000015,3321200,26.83631706,wait or hold,0.8031826184841826,0.9112283876977969,0.9839267596984982,0.8262076898870578,29.19359442947867,15.597290900815919,32.762717103245684,0.4586966130510539,0.27790691643686377,0.2237990924137625,1.2241767204412106,-18.321912169262617,63.25263676679575,64.23774007095847,64.23774007095847,29.69433326599999,29.039615483846152,0.9,0.5681819490358431,0,-0.1080457692136143,0.15771906981144035,13.59630352866275,0.05410782402310127,-1.3003846661538496,-0.06132506925157255,0.303774489806657,0.26110297036006513,0.3474735912079381,0.2816609801102441,0.3072692634137515,0.12566959878479178,-0.3052161402064655,0.18901432721735878,-0.4441861671262728,-0.5666004173668795,0.23352262955693415,-0.7205398759137774,0.6335617566147476,0.35995073015030954,0.0990579495265862,-0.0998902655849806
