Date,High,Low,Open,Close,Volume,Adj Close,Signal,MACD,SIGNAL LINE,plusDI,minusDI,adx,%R,RSI-7,RSI-14,RSI,MACD-SL,DMI,MACD-SL_n,DMI_n,Close_n,%R_n,RSI_n
12/30/2004,17.875,17.64999962,17.76250076,17.72500038,2900400,15.640625,wait or hold,0.05494884759167462,0.1301176743627257,19.889997415493536,24.274108500858503,13.370188456796756,-68.97270373099121,42.330299206823284,48.07979616169368,48.07979616169368,-0.07516882677105108,-4.384111085364967,-0.036633808117422006,-0.2487743962340685,-0.9681963037326358,-0.3794540746198243,-0.11484923842033834
12/31/2004,17.91500092,17.72999954,17.77499962,17.84000015,2445600,15.74210453,wait or hold,0.04403633200827528,0.11290139724636979,19.930358285686097,23.43173977270915,12.991942930828577,-65.96739471095489,46.91835414542708,49.83713628212748,49.83713628212748,-0.0688650652380945,-3.5013814870230533,-0.03189955333051275,-0.2272816179913797,-0.9659386396218587,-0.3193478942190978,-0.06320993092952076
1/3/2005,17.84000015,16.53750038,17.84000015,16.63750076,12024400,14.68101788,buy,-0.06038605340156167,0.07824389319366806,15.865687721538333,37.32497746212224,14.945667709033753,-95.0248572857128,23.809838666787684,36.08388674738539,36.08388674738539,-0.13862994659522973,-21.45928974058391,-0.0842944165873819,-0.6645223545898987,-0.9895459887151163,-0.900497145714256,-0.4673481358588971
1/4/2005,16.85000038,16.32500076,16.67749977,16.375,11683200,14.449388500000001,buy,-0.1623318071785036,0.03012873765561895,14.575372211507398,37.58125399465973,17.028778694506364,-97.75031525873902,21.156104200134422,33.885535992104835,33.885535992104835,-0.19246054483412256,-23.005881783152333,-0.12472230493028658,-0.7021789142716721,-0.994699377673231,-0.9550063051747805,-0.531946507741843
1/5/2005,16.47500038,16.02499962,16.375,16.23749924,7855200,14.32805061,buy,-0.25126136511413577,-0.026149297367982473,13.557582158410838,39.61228184921358,19.312634346048338,-91.57583601186222,19.807012963112356,32.759680751780905,32.759680751780905,-0.2251120677461533,-26.054699690802742,-0.149244271352715,-0.7764118020263742,-0.9973987789942648,-0.8315167202372444,-0.5650296794450442
1/6/2005,16.75,16.04750061,16.23749924,16.47750092,8714800,14.53983307,buy,-0.2990081583682276,-0.08072108079279629,16.24595852317011,35.45050867245397,20.5866369133634,-82.0614024813524,29.023702099176916,36.71226909444579,36.71226909444579,-0.2182870775754313,-19.20455014928386,-0.14411856312003157,-0.6096237558323073,-0.9926870897494757,-0.641228049627048,-0.448883167771989
1/7/2005,16.48749924,16.14749908,16.48749924,16.37000084,4044400,14.44497204,buy,-0.34154368354221276,-0.13288560992637663,15.402511257759649,33.61001187723277,21.769639297298813,-86.32304917351091,27.379320850525772,35.69999264212615,35.69999264212615,-0.20865807361583613,-18.207500619473123,-0.13688698276113742,-0.5853475057989433,-0.9947975206879173,-0.7264609834702183,-0.4786288353176341
1/10/2005,16.86249924,16.53249931,16.54999924,16.62750053,4525600,14.67218876,buy,-0.3505123361737077,-0.1764109609055359,19.953185826342754,31.091925633156585,21.773333951248983,-76.11493861098546,37.30573194353242,39.9698185578165,39.9698185578165,-0.1741013752681718,-11.138739806813831,-0.11093419033444218,-0.41323669306255273,-0.9897423122414202,-0.5222987722197092,-0.353160321380692
1/11/2005,16.82500076,16.51499939,16.71249962,16.73749924,4511600,14.76925564,buy,-0.34479907992642467,-0.21008858825638174,18.98881667641441,29.86204065854213,21.807952977616175,-71.50001520000004,41.30422601051968,41.74930952857723,41.74930952857723,-0.13471049167004293,-10.873223982127723,-0.08135082518649706,-0.4067718903068478,-0.9875828284459415,-0.43000030400000067,-0.30087011281619225
1/12/2005,16.99500084,16.52499962,16.75749969,16.95000076,6363200,14.97018337,buy,-0.3194971266702282,-0.23197029778268138,20.24548599111657,27.677882987977814,21.358022056693233,-58.42692215630083,48.68102324764354,45.13304293962482,45.13304293962482,-0.08752682888754684,-7.432396996861243,-0.04591492231737715,-0.322994330899412,-0.9834110196224144,-0.16853844312601662,-0.201439360596806
1/13/2005,17.32749939,16.95000076,17.03750038,17.13500023,5078800,15.1335783,buy,-0.2813199746690138,-0.24184023382518025,24.281669035223807,26.031022502575112,20.080803524005375,-46.50601429177312,54.4902780733071,47.96683780266302,47.96683780266302,-0.03947974084383357,-1.7493534673513054,-0.009830569288034163,-0.1846230849904319,-0.9797791283244424,0.06987971416453753,-0.11816851131908856
1/14/2005,17.52750015,17.06999969,17.13750076,17.48749924,3964400,15.44490337,buy,-0.2201645990041925,-0.23750510662723306,25.68213587296168,24.15518526977576,18.865308253929527,-23.228394211237894,63.639875865343576,52.95294984352309,52.95294984352309,0.01734050762304057,1.5269506031859201,0.032842607971497184,-0.1048513440451374,-0.9728589026234566,0.535432115775242,0.028348016624336614
1/18/2005,18.0,17.70000076,17.70000076,17.90500069,7349200,15.81363678,buy,-0.13652671556059204,-0.21730942754274582,31.001915235933563,22.2232230415923,18.69589391713467,-4.810090720083738,71.54492298478158,58.07705849783378,58.07705849783378,0.08078271198215378,8.778692194341264,0.08048901053747981,0.07171470085099663,-0.9646625554493501,0.9037981855983253,0.17891956469267023
1/19/2005,18.05500031,17.71249962,17.90250015,17.72500038,3413600,15.65466022,buy,-0.08376751718482112,-0.19060104454948845,30.188550997743814,21.013625575377663,18.640402527115263,-16.256148661703133,64.49232404219237,55.28151768150866,55.28151768150866,0.10683352736466734,9.174925422366151,0.10005370961163873,0.08136222249105485,-0.9681963037326358,0.6748770267659372,0.09677280770534957
1/20/2005,17.90500069,17.40500069,17.625,17.78000069,5607200,15.70323944,wait or hold,-0.037100835142148014,-0.15990100182048472,27.808912098153442,24.204982532148684,17.803858230852732,-13.546774705776032,65.69772616153075,55.978785803425986,55.978785803425986,0.12280016667833671,3.6039295660047586,0.11204498469499957,-0.05428087677356841,-0.9671165430864308,0.7290645058844794,0.11726197911420888
1/21/2005,18.12000084,17.85250092,18.11249924,17.91250038,5141200,15.82026291,wait or hold,0.010430602384268184,-0.1258346802271594,29.742290597802405,22.884007351549027,17.463014485065603,-9.904550795440516,68.68552498877574,57.690325009813755,57.690325009813755,0.1362652826114276,6.858283246253379,0.1221575641809538,0.024956414129833737,-0.9645153222770145,0.8019089840911897,0.16755543018469976
1/24/2005,18.14249992,18.02000046,18.03750038,18.03249931,5111200,15.92623901,wait or hold,0.057104179465142124,-0.08924690764224913,28.97906640258797,22.008978616734716,17.192087965386904,-5.194833266375461,71.32457492649785,59.23610507804272,59.23610507804272,0.14635108710739125,6.970087785853256,0.1297322111540684,0.027678640937068844,-0.9621595151515512,0.8961033346724907,0.21297806142625375
1/25/2005,18.22249985,17.87000084,18.09749985,17.97750092,3914800,15.87766933,wait or hold,0.08864062787651861,-0.05366940003561547,27.258737106983737,23.228577306128745,16.534261658145375,-11.148983133439664,68.24905525268632,58.18682848164267,58.18682848164267,0.14231002791213407,4.030159800854992,0.12669729244096217,-0.04390298536132542,-0.963239238104506,0.7770203373312068,0.1821451474249247
1/26/2005,18.27000046,17.95000076,18.08749962,18.23500061,4766800,16.105093,wait or hold,0.13284431498233928,-0.016366656610211774,26.577745299313083,21.954413158226153,16.033694900714696,-1.5747965067353509,74.30183594469649,61.61510081069507,61.61510081069507,0.14921097159255106,4.62333214108693,0.13188004332428793,-0.029460372819218872,-0.9581840296580089,0.9685040698652929,0.2828846724057219
1/27/2005,18.59749985,18.17499924,18.23749924,18.39249992,3816000,16.24419594,wait or hold,0.1785062574649494,0.022607926557394548,30.263107446888863,20.36597460232957,16.28473925051367,-8.367341451896756,77.37905095629729,63.581926189439905,63.581926189439905,0.15589833090755487,9.897132844559295,0.13690238794873455,0.09894659260799377,-0.9550920187812988,0.832653170962065,0.34067968848301766
1/28/2005,18.52000046,18.26499939,18.39500046,18.5,5884000,16.33913994,wait or hold,0.22080896470828648,0.06224813447444934,28.903844300374033,19.45123976327227,16.51785186104129,-4.681864512049061,79.34824962550704,64.90377158449297,64.90377158449297,0.15856083023383716,9.452604537101763,0.13890197979793362,0.08812317810741677,-0.9529815878428571,0.9063627097590188,0.37952201616720926
1/31/2005,18.70000076,18.31749916,18.5,18.5625,6724800,16.39432907,wait or hold,0.25641371650100453,0.10108125110458875,30.131960343888544,18.135427988956376,17.1133140489996,-6.292937015412565,80.49968197272582,65.68363909965947,65.68363909965947,0.15533246539641576,11.996532354932167,0.13647741129140822,0.1500629573520884,-0.9517545940243167,0.8741412596917488,0.40243836454480264
2/1/2005,19.02499962,18.68250084,18.6875,18.98749924,5659200,16.76970291,wait or hold,0.31524706190689855,0.14391441346344036,33.381358365098535,16.66726699647436,18.27634198639024,-1.5000152000000355,86.47989399237366,70.4862518451649,70.4862518451649,0.1713326484434582,16.714091368624175,0.14849387840963013,0.2649265009769237,-0.9434110509784869,0.9699996959999992,0.543562779472093
2/2/2005,19.15500069,18.92250061,19.0,19.15500069,4852000,16.91762924,wait or hold,0.37109423396859853,0.189350377732828,34.32745157868054,15.96746024937074,19.57836537896452,-0.0,88.15076325929537,72.14109013679948,72.14109013679948,0.18174385623577052,18.3599913293098,0.15631290996254865,0.30500101862209306,-0.940122679078542,1.0,0.592190078419893
2/3/2005,19.67499924,18.97999954,19.625,19.31999969,8987600,17.06335831,wait or hold,0.4237671241981893,0.23623372716487556,39.148885412654984,14.066218717554516,21.546659828360333,-13.627624235098194,89.62438420706245,73.70513621786382,73.70513621786382,0.18753339703331373,25.082666695100468,0.16066097438273297,0.4686853123241823,-0.9368834350294963,0.727447515298036,0.6381494550771292
2/4/2005,19.43499947,19.04000092,19.35000038,19.16250038,6324400,16.92425728,wait or hold,0.44765282271329454,0.2785175463748321,36.48959333371504,13.110733430503716,23.37436181708502,-22.577056712216756,78.7216873419865,69.68354705312154,69.68354705312154,0.16913527633846243,23.37885990321133,0.1468436066865788,0.42720087403725415,-0.9399754459062064,0.5484588657556648,0.5199753594281875
2/7/2005,19.25,18.94750023,19.16250038,19.23999977,5828000,16.9927063,wait or hold,0.46744090560145324,0.3163022182918391,34.55380973335186,14.037417548515698,24.720651704746626,-19.162984487368863,80.11066252922444,70.53547660145387,70.53547660145387,0.15113868730961416,20.516392184836164,0.1333277975443028,0.35750525715360815,-0.938453985546676,0.6167403102526228,0.5450092452396527
2/8/2005,19.54500008,19.04999924,19.23749924,19.42250061,5128400,17.153886800000002,wait or hold,0.4921627087721454,0.35147431644128135,36.6947753057308,12.837291767103617,26.39530042103238,-11.123294770386458,83.13515807701798,72.49558029888394,72.49558029888394,0.14068839233086405,23.857483538627186,0.12547941070906088,0.4388544445950162,-0.9348711471057412,0.777534104592271,0.6026067452162047
2/9/2005,19.78750038,19.16749954,19.38750076,19.55999947,5892400,17.27532387,wait or hold,0.5168820384790429,0.38455586088900023,36.944803458835544,11.509946577212968,28.259348842046656,-11.757156252643078,85.12359429946125,73.90412429119756,73.90412429119756,0.13232617759004267,25.434856881622576,0.11919921515297527,0.4772604700988725,-0.9321717830853194,0.7648568749471383,0.64399670467122
2/10/2005,20.05750084,19.67749977,19.73749924,20.0,4697600,17.6639328,wait or hold,0.5654321223555066,0.4207311132174398,38.36595455734123,10.565879588480556,30.298958420013317,-2.628609828571403,89.67045373231562,77.8187690577388,77.8187690577388,0.14470100913806677,27.800074968860677,0.12849296860274295,0.5348490090354754,-0.9235337361978875,0.9474278034285719,0.7590282472088379
2/11/2005,20.40250015,19.87750053,20.0,20.3125,6347200,17.93993568,wait or hold,0.6219373032682469,0.46097235125887126,40.69781954015915,9.664973422131448,32.536075416715384,-3.553807483564587,91.75782214780111,80.1018187811712,80.1018187811712,0.16096495200937566,31.032846118027706,0.1407075247832017,0.6135608065654548,-0.9173987671051854,0.9289238503287083,0.8261154919113882
2/14/2005,20.5625,20.32500076,20.32500076,20.53750038,7218800,18.138652800000003,wait or hold,0.677056678846153,0.5041892168031935,41.67404145404019,9.26006783132809,34.757715104744825,-0.9569235319662381,92.95386994845384,81.57248593007203,81.57248593007203,0.17286746204295944,32.413973622712106,0.14964655504444013,0.6471886210613296,-0.9129815818983175,0.9808615293606753,0.8693309356582635
2/15/2005,20.72249985,20.36499977,20.53750038,20.54249954,4679200,18.143064499999998,wait or hold,0.7129231489887431,0.5459360032610651,41.86078017041404,8.698844770118946,36.960003848519,-7.065761212908873,92.98027501266918,81.6050170390146,81.6050170390146,0.16698714572767803,33.16193540029509,0.14523031634019712,0.6654000604984964,-0.9128834388836312,0.8586847757418226,0.8702868598519748
2/16/2005,21.32500076,20.5625,20.5625,21.24749947,8003200,18.76571846,wait or hold,0.7891076796826404,0.5945703385647297,46.25289735743734,7.611460816872002,39.44417603866832,-2.5327207614943217,95.65761576789022,85.49414455097954,85.49414455097954,0.19453734111791066,38.64143654056534,0.16592108069170308,0.7988154383328898,-0.8990429499847284,0.9493455847701135,0.9845685797798056
2/17/2005,21.41250038,20.81749916,21.36249924,20.88999939,8656800,18.44997406,wait or hold,0.8112981502619654,0.6379159009179732,43.323527698380026,6.9046834585495445,41.805788570679205,-16.882093183795288,78.04703035458974,76.64487058526032,76.64487058526032,0.17338224934399216,36.418844239830484,0.150033170913618,0.7446995646459413,-0.9060613561973317,0.6623581363240942,0.7245333287360531
2/18/2005,21.52750015,20.94499969,20.96249962,21.39249992,8029200,18.89378548,wait or hold,0.8595047281959545,0.682233666384854,40.87665870200138,6.236489781805572,44.07148086935606,-4.745176194787995,83.13772978705896,79.8084956683073,79.8084956683073,0.17727106181110042,34.640168920195805,0.1529537491971631,0.7013922208314156,-0.8961963154913593,0.9050964761042399,0.8174962142637556
2/22/2005,22.08250046,21.55500031,21.55500031,21.64999962,9565600,19.12120438,wait or hold,0.9080102219765607,0.7273889775123936,44.88652667394194,5.604318446152725,46.48070759429197,-13.686736092724804,85.1907957164158,81.21288557399116,81.21288557399116,0.18062124446416705,39.28220822778921,0.1554698053930359,0.814417003980586,-0.8911411068485431,0.7262652781455039,0.8587641061950608
2/23/2005,21.78750038,21.54500008,21.57500076,21.61000061,7080800,19.08588219,wait or hold,0.9324749980168185,0.7684061816199629,43.22805590196704,5.549616179023906,48.678175638212714,-15.071764444495702,83.35163252514448,80.27882034990235,80.27882034990235,0.16406881639685567,37.67843972294313,0.14303859088675286,0.775368306744183,-0.8919263634568269,0.6985647111100861,0.8313166697185665
2/24/2005,22.08250046,21.61750031,21.72500038,22.08250046,6450000,19.50319481,wait or hold,0.9786939978195619,0.8104637448653659,44.60993544986745,5.150315769074203,50.86541155172732,-0.0,87.16915818375567,82.79602325547887,82.79602325547887,0.16823025295419602,39.459619680793246,0.14616391547890428,0.8187366337112436,-0.8826502931334466,1.0,0.9052844880972639
2/25/2005,22.9375,22.08499908,22.08499908,22.875,7637600,20.20312309,wait or hold,1.0669496387344104,0.861760923644525,51.42126508702142,4.516980193036991,53.2214620403499,-1.5664161303949145,91.14319273616205,86.01929206332841,86.01929206332841,0.20518871508988545,46.904284893984425,0.17392048199366372,1.0,-0.8670920205450288,0.9686716773921018,1.0
2/28/2005,23.32500076,22.30500031,22.92499924,22.78000069,10749200,20.119213100000003,wait or hold,1.1163599909643516,0.9126807371127389,49.58884722319199,3.900720178317702,55.521002208551856,-12.74853511631032,87.35917441244152,83.9879147729206,83.9879147729206,0.20367925385161267,45.688127044874285,0.1727868455044681,0.9703888812518267,-0.8689570376031983,0.7450292976737936,0.9403081308453038
3/1/2005,22.70000076,21.86750031,22.60000038,21.98749924,8655200,19.41929245,wait or hold,1.0791476901904709,0.9459741277305076,43.828017904507725,9.017448262057332,56.26038679018552,-32.17080282660755,62.218582040089466,69.28793757060043,69.28793757060043,0.13317356245996326,34.81056964245039,0.11983561864885672,0.705541152670442,-0.8845153476885473,0.3565839434678493,0.5083504044882479
3/2/2005,22.60499954,21.88999939,21.98500061,22.48999977,4772600,19.86309052,wait or hold,1.0777691906395397,0.9723331403137214,39.91513902971675,8.212388291378263,56.94695818741679,-22.892412977796088,68.85002371240837,72.5666265436866,72.5666265436866,0.10543605032581826,31.702750738338487,0.09900417556340746,0.6298717034416186,-0.8746503069825748,0.5421517404440783,0.6046944337852944
3/3/2005,23.29999924,22.68000031,22.85000038,22.94000053,5651600,20.26052856,wait or hold,1.1002950641514353,0.9979255250823575,44.42227428361087,7.405753229147895,57.98087696201399,-11.167518616815364,73.67712615763378,75.1274142778538,75.1274142778538,0.10236953906907775,37.01652105446297,0.09670116243062399,0.759251852528688,-0.8658159365688392,0.7766496276636929,0.6799429890796056
3/4/2005,23.65999985,22.78000069,22.94000053,23.39500046,3801200,20.66238403,wait or hold,1.1416920592110316,1.026678831909075,44.06016960190256,6.6424168612148335,59.11070780869403,-7.946010863829055,77.74526760050414,77.42227968799997,77.42227968799997,0.11501322730195662,37.417752740687725,0.1061968327899403,0.7690210770705712,-0.856883422944098,0.8410797827234189,0.7473774368490711
3/7/2005,23.32500076,22.71999931,23.25,23.09499931,3633800,20.39742851,wait or hold,1.1371876683113236,1.048780599190129,40.603065336111946,6.818697218965941,59.97725218252291,-17.147208688383405,69.48469288738133,72.66192352560617,72.66192352560617,0.08840706912119467,33.784368117146,0.08621505983263456,0.6805551072754474,-0.8627730158497783,0.657055826232332,0.6074947284437222
3/8/2005,23.57999992,23.0,23.0,23.53000069,4038000,20.781612399999997,wait or hold,1.1553929589387373,1.070103071140317,40.83066531883344,6.357129451855414,60.9114515612245,-4.196906095088175,74.13392599168213,75.05677455177599,75.05677455177599,0.08528988779842028,34.473535866978025,0.08387399243631011,0.6973350245309411,-0.8542331117807135,0.9160618780982364,0.6778672460327224
3/9/2005,24.20499992,23.26000023,23.70000076,23.30999947,8835000,20.58730698,wait or hold,1.1389422926922563,1.0838709154509456,43.517366313403514,5.682226922280121,62.053585421583435,-26.42067156318507,68.01920853118875,71.63873115909557,71.63873115909557,0.055071377241310726,37.83513939112339,0.06117926841949539,0.7791836441082269,-0.8585521539728951,0.47158656873629856,0.5774282975791862
3/10/2005,23.00499916,22.03499985,23.0,22.43000031,7807200,19.81010246,wait or hold,1.0428862739925435,1.0756739871591505,37.70164748261391,17.76290396813951,60.18894537930181,-54.44783695613416,49.11440275727674,59.89016117683317,59.89016117683317,-0.032787713166607,19.938743514474396,-0.004804718627376303,0.34344061629689526,-0.8758282104471471,-0.0889567391226832,0.23219745078006127
3/11/2005,22.89999962,22.36000061,22.43000031,22.69000053,4439600,20.03972816,wait or hold,0.9764813562386792,1.055835460974834,35.53558086899789,16.74237473890629,58.45749391146888,-56.95486771157103,53.56318658265129,61.8793393397123,61.8793393397123,-0.07935410473615478,18.7932061300916,-0.03977703809800548,0.31554897086266953,-0.8707239118430008,-0.13909735423142067,0.29064930174080694
3/14/2005,22.92499924,22.22999954,22.77499962,22.88500023,3761600,20.21194649,wait or hold,0.9288798514443073,1.0304443390685014,32.91452985901609,16.88714963130926,56.58070213856988,-49.62405148114598,56.86309880629088,63.347492513725435,63.347492513725435,-0.10156448762419412,16.027380227706832,-0.05645749324483429,0.248206397452307,-0.866895697018725,0.007518970377080381,0.33379087252436657
3/15/2005,23.18499947,22.43000031,22.82500076,22.44000053,3427000,19.81894302,wait or hold,0.8455057076659251,0.9934566127877211,33.03547987111909,15.545715636124898,55.11073047773531,-68.2125470929057,47.81641248993754,57.87007952640553,57.87007952640553,-0.14795090512179598,17.48976423499419,-0.09129464847944746,0.2838126524519353,-0.8756318871171624,-0.3642509418581139,0.17283750315806068
3/16/2005,23.04000092,22.08499908,22.44000053,22.64999962,5241800,20.00440788,wait or hold,0.7872986038375593,0.9522250109974525,29.80984572130368,17.555177724516348,53.02230841200154,-66.52408810455378,52.01914256223396,59.643461715851736,59.643461715851736,-0.16492640715989315,12.254667996787333,-0.10404360025433423,0.1563480667642443,-0.8715092057518966,-0.3304817620910757,0.2249482056423049
3/17/2005,23.29000092,22.73999977,22.75,23.16500092,6963600,20.45925331,wait or hold,0.7738006222406568,0.9165401332459296,30.418939952785394,16.39952564259432,51.37387199546076,-44.49194325213166,61.004742178036196,63.68103788322786,63.68103788322786,-0.14273951100527282,14.019414310191074,-0.0873807841281975,0.19931626590454044,-0.8613987511656522,0.11016113495736679,0.343592078163274
3/18/2005,24.21500015,23.75,24.0,24.10499954,9162200,21.28945541,wait or hold,0.8293846258053215,0.8991090317577441,36.42828896362699,14.69084302443685,50.74167487954326,-4.685862300207872,72.12215875771716,69.6496585407316,69.6496585407316,-0.06972440595242269,21.73744593919014,-0.03254493591186913,0.38723558183517315,-0.842944791226828,0.9062827539958425,0.5189795480360939
3/21/2005,24.11000061,23.48500061,24.10499954,23.82999992,3921800,21.04657745,wait or hold,0.8415463178895699,0.8875964889840756,34.14760019717373,16.425641507833443,49.62028130050787,-16.5591442645379,65.7265137811666,66.22098792819442,66.22098792819442,-0.04605017109450571,17.721958689340287,-0.014765097776092029,0.2894661435389192,-0.8483435565682834,0.6688171147092419,0.41822831952500117
3/22/2005,24.10499954,23.24500084,23.82999992,23.29999924,3800600,20.57847786,wait or hold,0.7992088576331078,0.8699189627138405,31.24852650618663,17.400388825154188,48.109222657762594,-41.97251303130564,54.79988056203303,60.082213002607205,60.082213002607205,-0.07071010508073272,13.84813768103244,-0.033285216265473316,0.19514600740683474,-0.8587484774991988,0.16054973937388728,0.23784087926041164
3/23/2005,23.13500023,22.22500038,23.13500023,22.51499939,6357200,19.88517952,wait or hold,0.6943147821983295,0.8347981266106723,28.04353610308364,25.34744499694705,45.033543368760526,-77.98167550710885,42.570718846686795,52.34260106861174,52.34260106861174,-0.14048334441234278,2.6960911061365884,-0.08568635653337153,-0.07638500779487012,-0.8741595169152812,-0.559633510142177,0.010412963700995315
3/24/2005,23.25499916,22.45499992,22.58499908,22.74500084,4159400,20.08831787,wait or hold,0.6225666475295029,0.7923518307943745,27.05280482559503,23.42217900351324,42.33064178662785,-67.43115172965803,46.641070872622215,54.20402897471078,54.20402897471078,-0.1697851832648717,3.6306258220817895,-0.10769264121396671,-0.053630873972199344,-0.8696441511967958,-0.3486230345931606,0.06511088295825851
3/28/2005,23.02000046,22.46500015,22.75,22.63999939,3214200,19.99557495,wait or hold,0.5508833326572073,0.744058131166883,25.600070980528084,22.164409527003084,39.82080460321894,-72.24773134205529,44.94444485217825,53.18276917328091,53.18276917328091,-0.19317479850967567,3.4356614535250003,-0.12525872415631156,-0.058377883641397954,-0.8717055292782003,-0.44495462684110576,0.03510124037351492
3/29/2005,23.11499977,22.35000038,22.63999939,22.375,4537400,19.76152229,wait or hold,0.46730515410152407,0.688707535753758,23.710081654263796,21.63789038741016,37.30285674490282,-84.40366499032127,40.59633230998026,50.59204507253919,50.59204507253919,-0.22140238165223391,2.072191266853636,-0.14645822066595449,-0.09157577619840529,-0.876907971093352,-0.6880732998064255,-0.04102699280484601
3/30/2005,23.19000053,22.04999924,22.45000076,23.18499947,7224800,20.47691727,wait or hold,0.4611096189012507,0.6431879523832215,21.198474412654168,22.13342733919408,34.79248518869473,-47.24773111269751,55.83350374673615,57.419861442916776,57.419861442916776,-0.18207833348197078,-0.9349529265399106,-0.11692505030133882,-0.16479398867683437,-0.8610061416099759,0.055045377746049784,0.15960787857891923
3/31/2005,24.42000008,23.82500076,23.875,24.37000084,6218600,21.52350044,wait or hold,0.5455253399735405,0.6236554299012732,29.821435899020628,19.69893737201371,33.76738473302588,-2.1096718261079483,69.28181071210211,65.03297689692764,65.03297689692764,-0.07813008992773274,10.122498527006918,-0.03885777775864707,0.10443381615352498,-0.8377423119147454,0.9578065634778412,0.3833187045718498
4/1/2005,25.15999985,24.54999924,24.625,25.12999916,6116800,22.19472885,wait or hold,0.6660695437663229,0.6321382526742874,34.318626377233876,18.311458688009115,33.52789167258782,-0.9646522223671792,74.98177066520392,68.87644283266299,68.87644283266299,0.03393129109203552,16.00716768922476,0.04530262817467645,0.2477142607797258,-0.8228221000628878,0.9807069555526564,0.496258662510628
4/4/2005,26.25,24.68000031,25.33499908,25.03499985,8144000,22.11083221,wait or hold,0.7453444296196707,0.6547794880633729,38.91769907812105,15.912707018753313,34.129944598607736,-28.92856976530645,73.00620896652441,67.87217706837171,67.87217706837171,0.0905649415562978,23.00499205936774,0.08783566648978947,0.41809790674704894,-0.8246871171210575,0.4214286046938711,0.4667483884312218
4/5/2005,25.47500038,24.72500038,25.03499985,24.98500061,6049600,22.06666565,wait or hold,0.7949719672145292,0.682817983893613,36.460547679756964,14.908024541909015,34.68899374419766,-30.119027645128313,71.84391854370968,67.31585924107952,67.31585924107952,0.1121539833209162,21.55252313784795,0.10404948165151096,0.38273306513160965,-0.825668697255645,0.3976194470974337,0.4504010308468098
4/6/2005,25.20499992,24.45499992,24.95000076,25.01499939,6983000,22.09316254,wait or hold,0.8271873129623302,0.7116918497073638,34.13928712018519,16.250848943643206,34.746914239526106,-29.404771107708076,72.1542323064498,67.48804575989868,67.48804575989868,0.1154954632549664,17.88843817654198,0.10655900192610157,0.29351960080046724,-0.8250797641736649,0.41190457784583856,0.45546071877385796
4/7/2005,25.47999954,24.22500038,25.45000076,24.55999947,5305600,21.691316600000004,wait or hold,0.8067056676334659,0.730694613292588,32.88089191920896,14.57831517589657,35.01962464646959,-40.23810057596271,60.37900513978076,62.140786628147985,62.140786628147985,0.07601105434087785,18.302576743312393,0.07690539733897928,0.30360308321009843,-0.834012277602087,0.1952379884807458,0.29833191068098075
4/8/2005,24.51000023,23.57999992,24.45000076,23.64500046,6119800,20.88319016,wait or hold,0.7084767723346488,0.7262510451009995,30.261744596765382,18.65971609019476,34.21219585872943,-62.023787348076574,43.66175708930136,53.03958952490392,53.03958952490392,-0.017774272766350685,11.602028506570623,0.006470684433366403,0.14045754280085054,-0.8519754476699365,-0.2404757469615315,0.030893917156458173
4/11/2005,24.30999947,23.42499924,23.64500046,24.28000069,3903200,21.4440155,wait or hold,0.6740965939547507,0.7158201548717484,28.085997645769606,18.577355981130633,33.223975251418494,-46.904736988666585,53.978442623368046,57.67277332415163,57.67277332415163,-0.04172356091699769,9.508641664638972,-0.01151572439214188,0.08948757503913485,-0.8395091859582287,0.06190526022666831,0.16703967521936902
4/12/2005,24.38999939,23.58499908,24.28000069,23.69499969,4081600,20.92735481,wait or hold,0.5928132090334799,0.6912187657040921,26.891939142217492,17.35505604279712,32.39038714822744,-60.83332970634984,45.101602750357834,52.53080809356548,52.53080809356548,-0.09840555667061224,9.536883099420372,-0.054085071015610775,0.09017519998810242,-0.850993867731668,-0.21666659412699685,0.015943412997924344
4/13/2005,23.70000076,22.79999924,23.67499924,22.90500069,4871200,20.24670982,wait or hold,0.45935586754852764,0.6448461860729755,24.91797815095554,22.483534655114333,30.443630411186412,-79.64282630272659,35.820723679195254,46.501347586201405,46.501347586201405,-0.18549031852444786,2.434443495841208,-0.11948752136496643,-0.08275562692486316,-0.8665030499661175,-0.5928565260545318,-0.16123183129494234
4/14/2005,23.67499924,22.74500084,23.14999962,22.85000038,6256800,20.19808769,wait or hold,0.3451730880318493,0.5849115664647464,23.036270071755503,21.232254471115773,28.560168625540875,-80.95235725624006,35.23185556258343,46.10458404251839,46.10458404251839,-0.23973847843289708,1.8040156006397297,-0.1602290071246819,-0.09810534101060531,-0.8675828106123225,-0.6190471451248012,-0.17289069823547287
4/15/2005,23.07500076,21.74500084,23.04999924,21.80999947,7069000,19.27879143,wait or hold,0.16881905699039024,0.5016930645698707,20.636203205171146,26.85370861166916,27.45531841217297,-98.55718885417058,25.85521592076411,39.27980212247096,39.27980212247096,-0.3328740075794805,-6.217505406498013,-0.23017570837413948,-0.29341404313107267,-0.8880000056178649,-0.9711437770834115,-0.37343640252412513
4/18/2005,22.40999985,21.39999962,21.85000038,22.38999939,4945000,19.79147148,wait or hold,0.07499286544953065,0.4163530247457991,19.01594704768634,27.427248223626073,26.787863110635268,-79.58763520756672,36.799196476017514,44.23735058076237,44.23735058076237,-0.34136015929626845,-8.411301175939734,-0.23654898315263484,-0.3468287763301473,-0.876613504552362,-0.5917527041513344,-0.22775921330981208
4/19/2005,23.44000053,22.62000084,22.64999962,23.29999924,5369000,20.59586716,wait or hold,0.0732187714054291,0.34772617407772277,25.405625057597693,25.211100670574332,24.901894925237798,-60.82475317249359,50.24268112102709,50.997415224146835,50.997415224146835,-0.2745074026722937,0.1945243870233604,-0.18634118556853307,-0.13729337526570418,-0.8587484774991988,-0.21649506344987168,-0.029115221336668884
4/20/2005,23.62000084,22.72500038,23.30999947,22.77499962,3523400,20.13179016,wait or hold,0.029114909649969434,0.2840039211921704,25.040085540106787,23.470284317848716,23.354331834472813,-71.6494867573598,43.95029318062083,47.425342618597696,47.425342618597696,-0.25488901154220095,1.5698012222580715,-0.17160736963442413,-0.1038080133864514,-0.8690552181148158,-0.43298973514719596,-0.13408030664522252
4/21/2005,23.56999969,22.79500008,22.875,23.53499985,3187600,20.8035984,wait or hold,0.05485452349835995,0.23817404165340733,23.488602873054155,22.01606646976607,21.917308964476753,-55.97938015006921,53.7359104806014,52.60116321918967,52.60116321918967,-0.18331951815504738,1.4725364032880854,-0.11785720556280144,-0.10617622579131913,-0.8541349687660272,-0.11958760300138427,0.01801079308184672
4/22/2005,23.95499992,23.31500053,23.57999992,23.67499924,3497600,20.92735291,wait or hold,0.0855636152285264,0.20765195636843065,25.357857820775177,20.89372730384116,21.041204273684404,-44.24020429882759,55.40900788851937,53.509125038557976,53.509125038557976,-0.12208834113990424,4.464130516934016,-0.07187133008567725,-0.03333662802831305,-0.8513865145879564,0.1151959140234482,0.04469118297057695
4/25/2005,24.68499947,23.97500038,24.20000076,24.15500069,3542400,21.35163879,wait or hold,0.14693847703214047,0.19550926050117243,29.098769889967357,19.22785458548365,20.99721957681294,-32.47546264657768,61.04424311480214,56.58018938979493,56.58018938979493,-0.04857078346903196,9.870915304483706,-0.01665812960124191,0.09830824562611884,-0.8419631735953095,0.3504907470684464,0.134934178343872
4/26/2005,24.20000076,23.77499962,24.15500069,23.875,3822800,21.10413551,wait or hold,0.171013751186468,0.19061015863823147,28.08406631772472,20.198350488970753,20.664023857291475,-39.338224790945596,56.20986312523189,54.325801837354845,54.325801837354845,-0.01959640745176347,7.885715828753966,0.005102223743394418,0.04997243341419533,-0.8474601194483822,0.21323550418108805,0.0686891693838605
4/27/2005,24.39999962,23.02000046,23.95000076,23.88999939,8047600,21.11738777,wait or hold,0.18912378006524477,0.19031288292363413,25.031752231024317,23.949258601241247,19.345881234182094,-24.20091678238587,56.42553297685636,54.43054777007715,54.43054777007715,-0.001189102858389357,1.0824936297830696,0.01892648873655367,-0.11567302169784932,-0.8471656529073922,0.5159816643522825,0.0717671207521613
4/28/2005,23.97500038,23.39500046,23.69000053,23.64500046,6088200,20.90082741,wait or hold,0.18161345093208325,0.18857299652532394,23.85810141154834,22.82636210067778,18.121891655580527,-31.65902762522202,51.584176939040155,52.319934325129296,52.319934325129296,-0.00695954559324069,1.0317393108705595,0.014592767354926206,-0.1169087923384785,-0.8519754476699365,0.3668194474955595,0.009746903145673613
4/29/2005,24.20000076,23.48500061,24.04999924,23.77499962,4975400,21.01574326,wait or hold,0.18402980380374956,0.18766435798100906,24.304062884910216,21.48877463983654,17.266605037852877,-27.70167097572322,54.02606727609473,53.35351867897263,53.35351867897263,-0.003634554177259497,2.8152882450736776,0.017089904412735946,-0.07348278532589425,-0.8494233170181693,0.4459665804855357,0.04011870177770982
5/2/2005,24.71999931,23.29999924,23.47500038,24.70499992,5359400,21.83780098,wait or hold,0.2580130274723125,0.2017340918792698,25.675660320744843,19.095544569848773,17.0830764616713,-0.45178889760678975,67.64558482042425,60.0289833525281,60.0289833525281,0.05627893559304267,6.58011575089607,0.062086169620829024,0.018183567378950105,-0.8311656431087178,0.9909642220478643,0.23627672998953253
5/3/2005,24.54999924,24.10000038,24.42499924,24.26000023,5300200,21.44444466,wait or hold,0.27753855447484455,0.21689498439838478,24.427410281131547,18.167193985365742,16.912657069502693,-13.855395269630263,58.04612662172737,55.90625856289156,55.90625856289156,0.06064357007645976,6.2602162957658045,0.06536410004192716,0.010394627184822314,-0.8399018330108361,0.7228920946073947,0.11513077159674023
5/4/2005,24.5,23.72500038,24.38500023,24.39500046,8089400,21.56377792,wait or hold,0.30044264526410913,0.2336045165715297,22.892098105915917,20.06657752939608,16.174417212973015,-9.78912290199642,60.052529491946814,56.873918670478275,56.873918670478275,0.06683812869257943,2.8255205765198355,0.07001634118839695,-0.07323364761589679,-0.8372515218474516,0.8042175419600717,0.1435653912023822
5/5/2005,25.04999924,24.53499985,24.70000076,24.96999931,5599600,22.07203865,wait or hold,0.3608320632069706,0.2590500258986179,26.19704021205851,18.980760706637874,16.160034911905132,-2.1917791322948035,67.72294994458997,60.81803115443038,60.81803115443038,0.10178203730835267,7.216279505420637,0.0962599365040897,0.033672938674209174,-0.825963201293566,0.956164417354104,0.25946284040356393
5/6/2005,25.20000076,24.70000076,25.12000084,24.86000061,5217200,21.974823,wait or hold,0.3952588961399428,0.286291799946883,26.35901685122763,18.172391895123504,16.318884872899037,-13.178300796226432,64.93997455507883,59.693321814357226,59.693321814357226,0.10896709619305983,8.186624956104126,0.10165606375942948,0.05729899542988637,-0.8281226848927258,0.7364339840754712,0.22641334089319298
5/9/2005,25.09499931,24.78499985,25.01000023,24.97999954,4281000,22.08089066,wait or hold,0.4272995992215769,0.3144933598018218,25.630191610823204,17.669926345424138,16.466388408107665,-8.888936817052135,66.68251291436837,60.55040890792877,60.55040890792877,0.1128062394197551,7.960265265399066,0.10453933942009486,0.05178756968349019,-0.8257668777672623,0.8222212636589572,0.25159878078426345
5/10/2005,25.05999947,24.41500092,24.89500046,24.51499939,3057000,21.66984749,wait or hold,0.41043941198359235,0.33368257023817594,24.134912034451077,19.98571833530427,15.961946602032915,-28.482377393756153,54.448278847535555,55.6152384888899,55.6152384888899,0.07675684174541642,4.149193699146807,0.0774654990451582,-0.041004737490001886,-0.8348957147219882,0.43035245212487694,0.10657916857315342
5/11/2005,24.64999962,24.14999962,24.25,24.46999931,4963600,21.63007736,wait or hold,0.3889627597621761,0.34473860814297597,23.01403181031878,21.518988761478884,15.06160442848091,-33.48630043766517,53.3433056717038,55.146802464851525,55.146802464851525,0.044224151619200125,1.4950430488398965,0.05303277849317434,-0.10562823199713733,-0.8357791518418893,0.33027399124669676,0.09281421117883726
5/12/2005,24.33499908,22.5,24.29999924,22.73999977,10188000,20.1008625,wait or hold,0.22969881735193454,0.3217306499847677,19.22549311377594,31.764419599443666,15.742275127535686,-91.11112213168411,27.92519441999771,40.88832417767312,40.88832417767312,-0.09203183263283315,-12.538926485667726,-0.04929827294615052,-0.4473285620148354,-0.8697423317084132,-0.8222224426336823,-0.32617010270628344
5/13/2005,22.92499924,21.20000076,22.92499924,22.49500084,8787000,19.88430023,wait or hold,0.08275775970811594,0.2739360719294373,16.64207953592242,37.6228629659521,17.37951302922462,-67.62499800000006,25.887154631665936,39.3371566963917,39.3371566963917,-0.19117831222132137,-20.980783430029682,-0.12375932182038474,-0.6528716406682322,-0.8745521264709575,-0.3524999600000013,-0.3717510426758751
5/16/2005,22.44499969,21.75499916,22.36499977,22.41500092,4869400,19.81357574,wait or hold,-0.03969183134008958,0.21121049127553193,15.669341563025915,35.42378758134844,18.8998053665072,-69.62499600000002,25.18688849210342,38.819291136746735,38.819291136746735,-0.2509023226156215,-19.754446018322525,-0.16861328411327914,-0.6230126690306623,-0.8761226769881371,-0.39249992000000045,-0.38696848326262356
5/17/2005,23.06999969,22.27499962,22.27499962,23.05500031,3652000,20.37929916,wait or hold,-0.08412193356395647,0.15214400630763425,19.656502260134822,33.17999001754,19.378031872731643,-53.62501125000003,40.26770366058884,45.05153346110851,45.05153346110851,-0.23626593987159072,-13.523487757405178,-0.15762105912083657,-0.471300746837391,-0.863558272261743,-0.07250022500000053,-0.20383451050294987
5/18/2005,23.61000061,22.90500069,23.19000053,23.21500015,4520600,20.52072716,wait or hold,-0.1052097188644261,0.10067326127322217,22.904388160251948,31.287366341290813,19.09882264904242,-49.625015250000004,43.58459747744249,46.518295753364214,46.518295753364214,-0.20588298013764827,-8.382978181038865,-0.13480283038409313,-0.3461391655481857,-0.8604171712273837,0.007499694999999917,-0.16073381067539938
5/19/2005,23.62999916,23.17499924,23.29999924,23.60000038,3912400,20.86104584,wait or hold,-0.08982036472345456,0.06257453607388683,22.19856650886333,30.09426140467343,18.8131211417776,-40.00000950000002,51.19298819235476,49.978390156869516,49.978390156869516,-0.1523949007973414,-7.895694895810099,-0.09463218079090319,-0.33427474907176646,-0.8528588847898376,0.19999980999999956,-0.05905919642613233
5/20/2005,24.0,23.53499985,23.77499962,23.93000031,5763000,21.15275192,wait or hold,-0.05041489784328235,0.039976649290452984,24.509444693636027,28.882088195520495,18.054310313666402,-31.750011250000032,56.993059256490426,52.79733618125731,52.79733618125731,-0.09039154713373533,-4.372643501884468,-0.048066384741718426,-0.24849518249841385,-0.8463803588021773,0.36499977499999936,0.023775320842753134
5/23/2005,24.73500061,24.22500038,24.47500038,24.625,4221400,21.76709747,wait or hold,0.03647424615738615,0.03927616866383962,29.17502367692566,26.864695054230413,17.059192632250387,-14.375019000000044,66.71264813226621,58.14683229076849,58.14683229076849,-0.0028019225064534747,2.3103286226952484,0.01771522795212377,-0.08577758682079983,-0.8327361936258973,0.7124996199999993,0.1809698623591609
5/24/2005,24.93499947,24.43000031,24.62999916,24.90999985,2862400,22.01902008,wait or hold,0.1268690835789208,0.056794751646855865,29.64497137747626,25.65410230249236,16.356170467535335,-7.250022750000085,69.96058531547502,60.14168137782394,60.14168137782394,0.07007433193206493,3.9908690749839018,0.07244679649636598,-0.04485963942586335,-0.8271411047581383,0.8549995449999983,0.23958835300103187
5/25/2005,25.25,24.65500069,24.89500046,25.0,3662600,22.09856606,wait or hold,0.2034249236125909,0.0861207860400029,30.904960043302314,24.266594370368487,16.047317234080452,-6.172840664533066,71.00296828997676,60.777452496878276,60.777452496878276,0.11730413757258801,6.638365672933826,0.10791735360253996,0.019601841626650574,-0.825374230714655,0.8765431867093385,0.2582704395982034
5/26/2005,25.30999947,24.88500023,25.0,25.27000046,2927800,22.33723068,wait or hold,0.2826247762164158,0.1254215840752855,30.234433227291895,23.297332293081674,15.826712396696697,-0.9732122276019524,74.14330951408874,62.699661252220416,62.699661252220416,0.1572031921411303,6.937100934210221,0.13788236561905243,0.026875474159133494,-0.8200736083878859,0.980535755447961,0.3147543995468054
5/27/2005,25.5,25.11000061,25.36000061,25.45000076,2058200,22.49634361,wait or hold,0.3558141077317174,0.1715000888065719,30.936323899621986,22.412652503868273,15.83746134222533,-1.162773228769181,76.15207572822872,63.96746767201236,63.96746767201236,0.1843140189251455,8.523671395753713,0.1582431550950294,0.06550543191789271,-0.8165398603009191,0.9767445354246163,0.3520087960004117
5/31/2005,25.09000015,24.70999908,24.85000038,24.94499969,4525000,22.04994774,wait or hold,0.36881641687459066,0.2109633544201757,28.70867605098666,24.691077294403993,15.243616098406365,-12.906986234723165,60.71348994430837,58.01018542178147,58.01018542178147,0.15785306245441497,4.017598756582668,0.13837043161353102,-0.04420882277693816,-0.8264539913608598,0.7418602753055368,0.1769545043739713
6/1/2005,25.97500038,24.56500053,25.27499962,25.79500008,3884600,22.80130196,wait or hold,0.4426065309312257,0.2572919897223857,33.09306517790801,21.512455475206583,15.669626630315426,-3.7696400905682106,71.90020428933762,64.07475839672752,64.07475839672752,0.18531454120884,11.580609702701427,0.15899456794372724,0.13993603587205938,-0.8097668677722689,0.9246071981886357,0.35516152589034955
6/2/2005,26.0,25.47500038,25.89999962,25.78499985,3712400,22.79246902,wait or hold,0.4945776086345006,0.3047491135048087,31.70237706139085,20.456478841910076,16.09042905776432,-4.4791705008686975,71.62028501993589,63.95772096140545,63.95772096140545,0.1898284951296919,11.245898219480775,0.16238464033874966,0.13178645110945975,-0.8099631912985726,0.9104165899826262,0.3517223896410495
6/3/2005,26.13500023,25.57500076,25.92499924,25.83499908,2109800,22.83666039,wait or hold,0.533648010231655,0.350528892850178,31.29696919123856,19.364572120677636,16.623481717250367,-6.849339650960405,72.25045634046951,64.30874563278556,64.30874563278556,0.18311911738147696,11.932397070560924,0.1573457594173182,0.1485013857823665,-0.8089816113603041,0.8630132069807919,0.36203722325321697
6/6/2005,26.22999954,25.80500031,26.09499931,26.05500031,2055800,23.03112793,wait or hold,0.5757271892402187,0.3955685521281862,30.923087432116077,18.555097727399293,17.22157973723644,-4.4247593815375055,75.08990823072688,65.88323494749602,65.88323494749602,0.1801586371120325,12.367989704716784,0.15512237774053794,0.1591072337199977,-0.8046625689718035,0.9115048123692497,0.40830347354702434
6/7/2005,26.24500084,25.37000084,26.125,25.45999908,3653400,22.50518036,wait or hold,0.5546697982460209,0.4273888013517532,28.300146632282996,21.198059778475752,17.016336191942138,-23.50304565106084,56.7631802781467,58.381976361456495,58.381976361456495,0.1272809968942677,7.1020868538072435,0.11541018050518259,0.030892565904698133,-0.8163435742715466,0.529939086978783,0.18787955322077
6/8/2005,26.56500053,25.44000053,25.45999908,26.22999954,5831600,23.1858139,wait or hold,0.5932752687776706,0.4605660948369367,28.31530964199949,18.970113464704202,17.21255335364621,-9.882031342825755,68.40540666556096,64.08146215228896,64.08146215228896,0.13270917394073384,9.34519617729529,0.11948685330317321,0.08550798987415953,-0.8012270013964542,0.8023593731434848,0.35535851524417783
6/9/2005,27.07999992,26.26499939,26.35000038,27.07500076,4287400,23.93275642,wait or hold,0.6841681625004021,0.5052865083696298,30.85780215254606,17.47562487510203,17.960743089878772,-0.14102002542406167,76.50510643171098,69.08497341560562,69.08497341560562,0.17888165413077228,13.382177277444029,0.15416333721208098,0.1838007623363047,-0.7846380210188686,0.9971795994915189,0.5023863180330863
6/10/2005,27.21500015,26.83499908,27.125,27.08499908,2781400,23.94158745,wait or hold,0.7483813385779818,0.5539054744113002,31.02840265549654,16.83701142007194,18.79558494989259,-4.347862207360713,76.58796012883103,69.13975190168516,69.13975190168516,0.1944758641666816,14.1913912354246,0.16587491023472767,0.20350357527294327,-0.784441734989496,0.9130427558527856,0.5039959797335458
6/13/2005,27.39999962,26.80500031,26.97500038,27.37000084,2613600,24.19351387,wait or hold,0.812897399963326,0.6057038595217055,31.03211634550024,15.859734612091478,19.76419431716812,-1.0100601673203649,79.04541106267135,70.73174932353744,70.73174932353744,0.20719354044162053,15.172381733408761,0.1754261471379981,0.22738881858070403,-0.7788466086248058,0.9797987966535928,0.5507767044411369
6/14/2005,27.73500061,27.21500015,27.37000084,27.70499992,3169600,24.48963737,wait or hold,0.8809039268602668,0.6607438729894178,32.76175509825486,15.038209818201013,21.000935710611827,-0.9463939824254317,81.68212785840998,72.52585448941417,72.52585448941417,0.22016005387084892,17.723545280053848,0.18516426587090273,0.2895047739897758,-0.7722699398187782,0.9810721203514914,0.6034963500318282
6/15/2005,28.14999962,27.70999908,28.0,27.79500008,3338800,24.56918526,wait or hold,0.9313260933680354,0.7148603170651414,35.51816004005291,14.353023279250959,22.53226973991618,-9.90236067256569,82.37716278060176,73.00462224149311,73.00462224149311,0.216465776302894,21.165136760801953,0.1823897873046012,0.3733009474007354,-0.7705030655789759,0.8019527865486862,0.6175649044788689
6/16/2005,28.17499924,27.81500053,28.02499962,28.02000046,2695200,24.76808167,wait or hold,0.9781659672032816,0.7675214470927696,34.354350298292744,13.775808578268627,23.97682353245775,-4.29359654812729,84.13310532582173,74.21439200506471,74.21439200506471,0.21064452011051205,20.578541720024116,0.17801790396946449,0.3590184795267901,-0.766085880372108,0.9141280690374542,0.6531138981470646
6/17/2005,28.22500038,27.59000015,28.14999962,28.07500076,5816400,24.81669426,wait or hold,1.008104166328394,0.8156379909398946,32.03585488327528,15.237410147479427,24.802390946238962,-4.098350441189199,84.57152110742567,74.51504372973486,74.51504372973486,0.19246617538849942,16.79844473579585,0.16436559255693073,0.2669803442127803,-0.7650061199222221,0.918032991176216,0.6619485265023619
6/20/2005,28.86499977,28.32999992,28.57500076,28.66500092,4439200,25.33822441,wait or hold,1.06713715584306,0.8659378239205278,36.097097290326325,13.973898008539473,26.18676744421595,-4.651136868573027,88.53585191950948,77.54029913513384,77.54029913513384,0.20119933192253225,22.123199281786853,0.17092437304218833,0.39662793829901033,-0.7534232951340964,0.9069772626285393,0.7508454294417273
6/21/2005,28.71999931,28.14999962,28.5,28.25,4899200,24.97138405,wait or hold,1.0681215015380872,0.9063745594440398,33.91207732029917,15.039566437306926,27.070096569418244,-17.596565329992835,73.11826590728583,71.14306375678305,71.14306375678305,0.16174694209404739,18.872510882992245,0.14129481544804,0.3174798899922495,-0.7615705521505538,0.6480686934001432,0.5628631481789252
6/22/2005,28.83499908,28.28499985,28.5,28.42499924,7096400,25.12606812,wait or hold,1.0706804305929367,0.9392357336738193,33.018238964119924,14.09646461691092,28.005166897883612,-12.589432466578819,75.23950861074252,72.18517244456086,72.18517244456086,0.13144469691911742,18.921774347209002,0.11853720500806775,0.318679361171041,-0.7581349843788856,0.7482113506684238,0.5934854337235851
6/23/2005,28.95999908,28.25,28.5,28.36000061,4413800,25.06862068,wait or hold,1.0552987291822227,0.9624483327755001,31.850692680084958,13.028617937520561,29.00046307833901,-16.713057497209224,72.75184351129894,71.15730989781024,71.15730989781024,0.09285039640672255,18.822074742564396,0.08955209016941645,0.31625186638947356,-0.7594110310544631,0.6657388500558157,0.5632817699633519
6/24/2005,28.67499924,27.79999924,28.45000076,27.95000076,4817000,24.70619583,wait or hold,0.9985148189513069,0.9696616300106615,28.940999646318144,16.536621076408846,28.877271868460472,-28.133671731270752,58.514321174639925,64.88146938544085,64.88146938544085,0.02885318894064537,12.404378569909298,0.04148886883544001,0.15999323302437674,-0.7674601075593028,0.43732656537458503,0.37886666772260114
6/27/2005,28.64999962,28.00499916,28.00499916,28.37000084,5071200,25.07746124,wait or hold,0.9761511758736567,0.9709595391832607,26.829392628081933,15.330068243072276,28.762880030716115,-16.761320540884878,66.37800964255459,67.9954405665263,67.9954405665263,0.005191636690396018,11.499324385009658,0.023718555599319346,0.13795689377597764,-0.7592147075281593,0.6647735891823023,0.4703704770693775
6/28/2005,28.36000061,27.80999947,28.34499931,28.0,4123000,24.75039482,wait or hold,0.9179898501399073,0.9603656013745901,25.242634650252178,16.48282816267636,28.207953664581673,-35.62149129597857,55.55493049786888,62.7192874716403,62.7192874716403,-0.042375751234682846,8.759806487575819,-0.012005532757723869,0.071254869994267,-0.7664785274247155,0.2875701740804286,0.3153311145308437
6/29/2005,28.32500076,27.89999962,27.95000076,28.23500061,3582200,24.95812416,wait or hold,0.8807069156213743,0.944433864223947,24.078725623791012,15.722823799187474,27.69266489602826,-33.64263961969684,60.34594299970683,64.59823016160739,64.59823016160739,-0.06372694860257277,8.355901824603539,-0.028040721877222285,0.0614205635783982,-0.7618650186915439,0.3271472076060633,0.37054370439698925
6/30/2005,28.96999931,27.95499992,27.97500038,28.39999962,4697000,25.10398293,wait or hold,0.8546224014570747,0.9264715716705726,28.26298801578368,14.055942424562021,28.112572550813816,-26.327942414754002,63.563317947870225,65.89782633381657,65.89782633381657,-0.0718491702134979,14.207045591221659,-0.034140677648205164,0.2038847289108301,-0.7586257744461793,0.47344115170491996,0.4087322403384741
7/1/2005,29.36000061,28.76000023,28.84000015,29.23999977,4037800,25.84648132,wait or hold,0.8914550624222493,0.919468269820908,29.46781078944013,12.68603666459687,28.948158569003255,-5.594443555503924,75.41222135024827,71.61142521349073,71.61142521349073,-0.028013207398658757,16.78177412484326,-0.0012189664270653155,0.2665744467045885,-0.742134974580211,0.8881111288899215,0.5766259144178278
7/5/2005,30.02499962,29.39999962,29.5,29.97500038,4493400,26.49617767,wait or hold,0.9687860340249586,0.9293318226617181,33.834477625432626,11.683317155744469,30.356492716507564,-2.0533573257820166,81.54024459242709,75.48223309799548,75.48223309799548,0.039454211363240455,22.151160469688158,0.04945045508642942,0.3973087397721837,-0.7277055152987162,0.9589328534843597,0.6903693134682516
7/6/2005,30.35000038,29.43000031,30.03499985,29.50499916,3570200,26.08073235,wait or hold,0.9808397175679069,0.939633401642956,33.96978981147133,10.62351520135769,31.927726530805497,-30.615983680552105,68.75613115134337,69.0030223059573,69.0030223059573,0.04120631592495094,23.34627461011364,0.05076632171067863,0.4264074844422556,-0.7369325327650593,0.3876803263889579,0.49997819082928796
7/7/2005,30.18499947,29.14999962,29.35000038,30.17499924,4500400,26.672966,wait or hold,1.0325531090874627,0.9582173431318572,30.60618574209391,12.250342770526846,32.7065256525717,-6.340620486107811,75.21799384212792,72.6121031138113,72.6121031138113,0.07433576595560543,18.355842971567064,0.07564722124586987,0.3049000140412981,-0.7237791574597542,0.8731875902778439,0.6060307593838459
7/8/2005,30.69499969,29.70499992,30.29999924,30.22999954,4345400,26.72159195,wait or hold,1.065689798418198,0.9797118341891256,32.541466460988374,11.11648403959344,33.87567673986332,-16.062178850438446,75.69932964516623,72.89114113219236,72.89114113219236,0.08597796422907256,21.424982421394937,0.0843907520120879,0.37962769250018624,-0.7226993970098683,0.6787564229912311,0.6142302706026821
7/11/2005,30.34499931,29.74500084,29.89999962,30.21500015,3566000,26.70832825,wait or hold,1.0783104461373014,0.9994315565787609,30.687620458799834,10.483192066722498,34.961317035205546,-16.580292414116816,75.23440398145448,72.67368328250573,72.67368328250573,0.0788788895585405,20.204428392077336,0.07905920067311634,0.349909535167954,-0.7229938635508583,0.6683941517176637,0.6078402880172464
7/12/2005,30.875,30.25,30.375,30.67499924,4407400,27.11494637,wait or hold,1.1126050545809285,1.0220662561791944,33.82430110593575,9.82044747997748,36.39252746338805,-6.504088148583146,79.69610959153748,75.12465094862132,75.12465094862132,0.09053879840173407,24.00385362595827,0.0878160324420878,0.4424182764120066,-0.713963206911431,0.8699182370283369,0.6798617888575911
7/13/2005,30.875,30.10000038,30.875,30.37999916,2578200,26.87169456,wait or hold,1.1032620247304976,1.038305409889455,31.32037271731415,10.526251682191619,37.342437972110545,-16.097584314092956,70.22970768880162,70.74250570927661,70.74250570927661,0.06495661484104254,20.79412103512253,0.0686032855212837,0.36426742373555365,-0.7197546193054937,0.6780483137181408,0.55109278002845
7/14/2005,30.70000076,29.38999939,30.54999924,29.56500053,4598800,26.15082741,wait or hold,1.0183550778341264,1.0343153434783894,27.600976362461303,15.712472598523524,36.63566408634979,-42.60159825131231,50.78618529401375,60.280795137270815,60.280795137270815,-0.015960265644263005,11.888503763937779,0.007833041155829834,0.14743266767507546,-0.7357545918035562,0.14796803497375377,0.24367620037716042
7/15/2005,29.95000076,29.06999969,29.61000061,29.34000015,4797000,25.9518013,wait or hold,0.9222786100053142,1.0119079967837743,25.417379569626725,17.34624248352941,35.36696227930393,-50.081552514446024,46.62826198858761,57.74201409288525,57.74201409288525,-0.08962938677846011,8.071137086097316,-0.047493986612206496,0.05448708656850987,-0.7401717770104239,-0.0016310502889205214,0.1690743100097325
7/18/2005,29.29500008,28.75,29.29500008,29.06500053,2991400,25.70855904,wait or hold,0.8145574386934804,0.9724378851657155,24.043946916983856,19.339653151534915,33.615285264851956,-59.05380610162575,41.75384189280538,54.70923721778025,54.70923721778025,-0.1578804464722351,4.704293765448941,-0.09875193861080211,-0.027489112036925722,-0.7455705423518794,-0.1810761220325151,0.07995638924779791
7/19/2005,30.07500076,28.59000015,28.59000015,30.07500076,2710200,26.60193062,wait or hold,0.8014476093431391,0.9382398300012003,27.682552677182525,16.8689337787541,32.947920909811465,-26.890727321520476,59.772800726550244,62.49961205528087,62.49961205528087,-0.13679222065806118,10.813618898428423,-0.08291424654611657,0.12126127601197823,-0.725742317728929,0.4621854535695906,0.3088759689152314
7/20/2005,30.49500084,29.61499977,30.25,30.34000015,3321200,26.83631706,wait or hold,0.8031826184841826,0.9112283876977969,29.19359442947867,15.597290900815919,32.762717103245684,-18.321912169262617,63.25263676679575,64.23774007095847,64.23774007095847,-0.1080457692136143,13.59630352866275,-0.06132506925157255,0.18901432721735878,-0.7205398759137774,0.6335617566147476,0.35995073015030954
7/21/2005,30.55999947,29.71999931,30.32500076,30.11499977,3541200,26.637302399999996,wait or hold,0.777440131913476,0.8844707365409327,27.65052249153411,14.475547841936457,32.656459421497466,-33.26040612212731,58.26037417152369,61.62598218941371,61.62598218941371,-0.10703060462745662,13.174974649597655,-0.06056265973205133,0.17875577444876867,-0.7249570611206453,0.3347918775574539,0.28320442090235165
7/22/2005,31.76499939,30.12000084,30.375,31.76499939,4257800,28.09675598,wait or hold,0.8800356844419106,0.8835837261211283,33.64280049507937,12.564091175303169,33.582291396987536,-0.0,75.08457557958604,70.95277915672642,70.95277915672642,-0.0035480416792177394,21.078709319776202,0.017154877081172026,0.37119660443145164,-0.6925644317713011,1.0,0.5572716494935905
7/25/2005,32.47499847,31.35499954,31.625,32.15000153,4514200,28.43730164,wait or hold,0.9811003360374322,0.9030870481043891,36.261683681046684,11.45807946637363,34.896244496975484,-8.365433218514374,77.54814203661132,72.62470873629557,72.62470873629557,0.07801328793304307,24.803604214673054,0.078409116018479,0.4618906743977469,-0.6850061078368239,0.8326913356297125,0.6064011746540656
7/26/2005,32.69499969,32.00500107,32.48500061,32.67499924,4314400,28.90167999,wait or hold,1.090981566711008,0.9406659518257129,36.02013361845908,10.825807063982401,36.24517255900555,-0.4872217354744168,80.59984492893699,74.75829873167272,74.75829873167272,0.1503156148852952,25.194326554476675,0.1327096531959746,0.4714040164445501,-0.6746994047181379,0.9902555652905116,0.6690965564697471
7/27/2005,32.93999863,31.83499908,32.65000153,31.89500046,6249000,28.21175003,wait or hold,1.102415892859149,0.9730159400324002,34.81674504075541,9.885065149278699,37.640039633897345,-24.022954831009514,65.23139881254475,66.46942816723396,66.46942816723396,0.12939995282674877,24.93167989147671,0.1170015600670764,0.4650090722910474,-0.6900122636226029,0.5195409033798097,0.4255287172952906
7/28/2005,31.85499954,29.51000023,31.10499954,30.42499924,10402800,26.91149712,wait or hold,0.9815462228805387,0.974721996602028,28.966016003021394,24.60553695565016,35.532861230709166,-57.81609813344123,45.96209169135862,54.259337468394925,54.259337468394925,0.006824226278510759,4.360479047371236,0.024944664016045337,-0.0358603431660246,-0.7188711821855925,-0.1563219626688246,0.06673611889238407
7/29/2005,30.70000076,30.36000061,30.52499962,30.54999924,3810200,27.02206802,wait or hold,0.8856335605868004,0.9569043093989826,28.237525620203407,23.98671188027928,33.576195570605854,-54.94253391095442,47.50061035487577,55.01605104557902,55.01605104557902,-0.0712707488121822,4.250813739924126,-0.033706271258668985,-0.03853048375981949,-0.7164171945485117,-0.09885067821908833,0.08897209054085464
8/1/2005,31.52499962,30.57500076,31.52499962,30.61000061,3140200,27.07514763,wait or hold,0.8051820558271956,0.9265598586846252,32.30072015731804,22.257966987274923,32.49269935769202,-53.563191589896824,48.324533285513674,55.397489275838005,55.397489275838005,-0.1213778028574296,10.042753170043117,-0.07133770119640204,0.10249216915729153,-0.7152392535870085,-0.0712638317979365,0.10018062429710595
8/2/2005,31.34499931,30.61000061,30.82500076,31.32500076,3888600,27.70756912,wait or hold,0.790011430824805,0.8992501731126612,30.515284964777173,21.02764898260065,31.486595731414887,-37.12640078899516,57.57993758538185,59.77468298274855,59.77468298274855,-0.10923874228785624,9.487635982176524,-0.06222101660901247,0.08897612682685119,-0.701202441358121,0.25747198422009676,0.22880413271744993
8/3/2005,31.47999954,30.79000092,31.36000061,31.0,2706400,27.42009926,wait or hold,0.7431966494305513,0.8680394683762394,29.935754292045658,19.91475647087613,30.673417220883774,-44.59768523873139,52.58533786193271,57.03475608732067,57.03475608732067,-0.12484281894568805,10.020997821169527,-0.07393999966800369,0.10196246800100206,-0.7075828241347759,0.10804629522537224,0.148291586619979
8/4/2005,31.68000031,30.90999985,31.07500076,31.19499969,3720400,27.5925808,wait or hold,0.7136044541640061,0.8371524655337929,29.69884336953093,18.723830803741684,30.101389405536146,-40.114932178091244,55.29951429430045,58.270695186384415,58.270695186384415,-0.12354801136978677,10.975012565789246,-0.07296757250173347,0.1251909032827485,-0.7037546095068192,0.1977013564381751,0.18460956424671293
8/5/2005,31.47999954,30.59000015,31.43000031,30.97500038,2724400,27.39798737,wait or hold,0.6647376397934792,0.8026695003857302,27.64128884633608,19.917620293142473,29.111305437916627,-45.17238934759349,51.4248619870405,56.302887996571094,56.302887996571094,-0.13793186059225093,7.723668553193608,-0.08377013961656077,0.04602689203324184,-0.7080736142020696,0.09655221304813022,0.126785697724888
8/8/2005,31.67000008,30.95499992,31.22999954,31.04999924,3572200,27.46432686,wait or hold,0.6248591310665255,0.7671074265218893,27.58090527314016,18.791280799955498,28.38582063893927,-55.10204873564957,52.74181001743215,56.83800880880453,56.83800880880453,-0.14224829545536388,8.789624473184663,-0.0870118711297595,0.07198088094205701,-0.7066012440001885,-0.10204097471299134,0.14251018261335524
8/9/2005,31.29999924,30.68000031,31.12000084,30.875,2626400,27.30953979,wait or hold,0.5725343307708854,0.7281928073716887,26.19746438768938,20.0735334931231,27.303613657583394,-60.204069774493156,49.11677094806972,55.141167424138146,55.141167424138146,-0.15565847660080323,6.1239308945662785,-0.09708319345837224,0.00707633819666631,-0.7100368117718567,-0.20408139548986315,0.0926486259305761
8/10/2005,31.86000061,31.125,31.35000038,31.57500076,4457200,27.92869949,wait or hold,0.5808550228662455,0.6987252504706001,28.620347237072863,18.48700158487632,26.88986825286774,-39.79587483189487,61.473991892307055,60.25276178873696,60.25276178873696,-0.11787022760435462,10.133345652196542,-0.06870343991518146,0.10469792291590085,-0.6962944660839594,0.20408250336210254,0.2428524425353491
8/11/2005,32.06000137,31.56500053,31.57500076,32.04999924,3341600,28.34885406,wait or hold,0.618646268066275,0.6827094539897351,29.103710342463796,17.72867650517968,26.704079045301455,-25.947516185430295,67.6865441303764,63.30808517272912,63.30808517272912,-0.06406318592346016,11.375033837284114,-0.02829324303266667,0.1349306565398578,-0.686969342903542,0.4810496762913943,0.3326328907680507
8/12/2005,32.22000122,31.73500061,32.02999878,31.84499931,2937000,28.16752052,wait or hold,0.6248514234277138,0.671137847877331,29.264923564715428,16.993173478441452,26.69156406056464,-31.924193317407955,62.60351019424917,61.12429811508063,61.12429811508063,-0.04628642444961717,12.271750086273975,-0.01494252891328074,0.156763982988134,-0.6909938812541214,0.3615161336518409,0.2684624720465223
8/15/2005,32.29999924,31.32999992,32.29999924,31.48999977,2682400,27.85351753,wait or hold,0.5942731478528493,0.6557649078724347,26.864434762624633,19.024100111624502,26.005424258745453,-42.27403896165076,54.35655788968255,57.4298661371105,57.4298661371105,-0.06149176001958534,7.840334651000131,-0.02636204920007057,0.04886748848917266,-0.6979631971127565,0.15451922076698477,0.15990186576660936
8/16/2005,31.59000015,30.54999924,31.25,30.59499931,3429800,27.061876300000005,wait or hold,0.4921474202751881,0.6230414103529854,24.54021286461141,23.866949509813015,24.24723925237219,-61.111130286745166,39.17677051256616,49.33404880945507,49.33404880945507,-0.13089399007779734,0.6732633547983937,-0.07848455385978637,-0.12563699658547212,-0.7155337576249295,-0.22222260573490327,-0.07799311854017865
8/17/2005,31.20000076,29.58499908,30.59499931,29.875,5658600,26.42502403,wait or hold,0.3490900277264899,0.5682511338276863,21.43839625149996,28.40275704515072,23.513373109116827,-89.31856711198128,31.040905503771683,43.96471214818756,43.96471214818756,-0.21916110610119643,-6.964360793650762,-0.1447749765503883,-0.31159854407630316,-0.7296687128685033,-0.7863713422396257,-0.23577067318023814
8/18/2005,30.30999947,29.375,29.73999977,30.02499962,4373000,26.55769539,wait or hold,0.24499557239812475,0.503600021541774,19.872331599195647,27.968627398224637,23.042657600439117,-77.77778499525355,34.354395194092476,45.30038742873202,45.30038742873202,-0.2586044491436492,-8.09629579902899,-0.1743977398218366,-0.3391589975848618,-0.7267239351641287,-0.555555699905071,-0.19652195534928485
8/19/2005,30.67499924,30.42000008,30.45000076,30.54000092,2866000,27.01323128,wait or hold,0.20173083877146425,0.443226184987712,21.753659850176025,26.51835242435661,22.101789733491398,-60.17089836919064,44.949807709613715,49.73079938317453,49.73079938317453,-0.24149534621624774,-4.764692574180586,-0.16154845102651894,-0.2580408279451507,-0.7166134805778843,-0.2034179673838128,-0.06633463272105333
8/22/2005,30.98999977,30.39999962,30.75,30.70499992,2712200,27.15917397,wait or hold,0.17869735380945428,0.39032041875206047,23.279869500263697,25.239042477032914,20.811515992467374,-54.52990545050536,48.082010408785145,51.09742408406441,51.09742408406441,-0.2116230649426062,-1.9591729767692172,-0.13911375233490997,-0.18973178894165266,-0.7133742365288388,-0.09059810901010723,-0.02617646849705646
8/23/2005,31.02499962,29.92499924,30.93000031,30.5,3677600,26.97784042,wait or hold,0.14226146947122942,0.3407086288958943,21.22405900178318,26.823543928684067,20.157410276377856,-61.53845154503354,44.418681982030485,49.30398602662924,49.30398602662924,-0.1984471594246649,-5.599484926900889,-0.1292183758293014,-0.2783664258965636,-0.7173987746830992,-0.2307690309006708,-0.07887651115628158
8/24/2005,31.19000053,30.35000038,30.5,30.84499931,3129200,27.28299713,wait or hold,0.13961493498426947,0.30048989011356936,21.117009365034694,25.0074310820589,19.320068181637104,-49.743600275260256,51.65121068656662,52.335972956812896,52.335972956812896,-0.1608749551292999,-3.890421717024207,-0.101000876307768,-0.23675400388011103,-0.710625782350768,0.005127994494794841,0.010218197133451401
8/25/2005,30.98999977,30.51000023,30.51000023,30.82999992,3194800,27.26974106,wait or hold,0.13475385339771506,0.2673426827703985,20.27235875825424,24.007169090772578,18.542536236520693,-50.2564000666202,51.31253272529364,52.1898294773021,52.1898294773021,-0.13258882937268346,-3.7348103325183395,-0.07975741308882078,-0.23296516414311275,-0.710920248891758,-0.005128001332403986,0.005923781961064023
8/26/2005,31.0,30.125,30.77000046,30.22999954,3045200,26.73903084,wait or hold,0.08154637997645864,0.23018342221161053,18.79640927313694,25.46276918323261,18.29393335638081,-70.76923890072526,39.28963520544832,46.585858752970026,46.585858752970026,-0.1486370422351519,-6.666359910095668,-0.09180995158798022,-0.3043427922374552,-0.7226993970098683,-0.41538477801450513,-0.15874847700488304
8/29/2005,31.51000023,30.38500023,31.375,30.87000084,5745800,27.30511665,wait or hold,0.08998454343873163,0.20214364645703478,20.962088682213118,22.84276103926909,17.29388791182892,-48.8888468907773,52.995373144116,52.450842588842974,52.450842588842974,-0.11215910301830315,-1.8806723570559711,-0.06441426768542735,-0.18782044891795846,-0.7101349547865431,0.022223062184453912,0.013593632645783504
8/30/2005,31.71500015,31.125,31.125,31.60000038,5882000,27.95081329,wait or hold,0.15380375586817152,0.19247566833926216,21.186918328150554,21.285666119967853,16.075217184068237,-23.931591175387716,63.85425833524199,58.10191825533967,58.10191825533967,-0.03867191247109064,-0.0987477918172992,-0.009223873536510996,-0.144433992184421,-0.6958036760166656,0.5213681764922455,0.17965006680041062
8/31/2005,32.60499954,31.53000069,32.04999924,31.91500092,11823600,28.22943306,wait or hold,0.22718006178303796,0.19941654702801734,26.448727508989116,19.467578711329775,16.01299261209538,-21.362189420002224,67.62005013569248,60.294770658269115,60.294770658269115,0.02776351475502062,6.9811487976593405,0.04067050107160641,0.027947955429677096,-0.6896196165699954,0.5727562115999556,0.24408687001235752
9/1/2005,33.29000092,32.16500092,32.54999924,33.23500061,7270200,29.39700699,wait or hold,0.38737879305260847,0.2370089962329356,28.90881149671227,17.418250885534057,16.640859430122564,-1.404860717120776,78.54695945975953,67.88097913124253,67.88097913124253,0.15036979681967289,11.490560611178214,0.13275034494499627,0.13774351263651896,-0.6637055132083114,0.9719027856575846,0.4670070363877865
9/2/2005,33.15999985,32.41999817,33.04499817,32.625,5840600,28.85744095,wait or hold,0.4598150296846839,0.2815702029232853,27.08857997464686,16.32151782458831,17.223878618290662,-16.985970976476747,66.45605112968362,61.9868734397738,61.9868734397738,0.17824482676139863,10.76706215005855,0.15368506673720206,0.12012770818974361,-0.6756809848527254,0.660280580470465,0.29380918319702354
9/6/2005,33.17499924,32.49000168,33.14500046,33.09000015,3225200,29.26873779,wait or hold,0.5484210382085841,0.3349403699803451,25.74606402515776,15.44148234428477,17.780650363175234,-5.108575300155884,70.49521618498643,64.51621384362385,64.51621384362385,0.21348066822823902,10.30458168087299,0.18014790963870442,0.10886719286947955,-0.6665521478979995,0.8978284939968824,0.3681336610511563
9/7/2005,33.65000153,32.82500076,33.25,33.19499969,4300200,29.36161423,wait or hold,0.619967919322562,0.39194587984878854,27.82656579745058,14.432179335680598,18.774613138260815,-10.64331408555062,71.40238542267177,65.08121815468107,65.08121815468107,0.22802203947377347,13.394386461769983,0.19106877903826547,0.18409803263485913,-0.6644908073135262,0.7871337182889877,0.38473627030878776
9/8/2005,34.07500076,33.22499847,33.34999847,33.74499893,4125200,29.84810829,wait or hold,0.7128325893612377,0.4561232217512785,29.256101358084308,13.424236930215406,20.083144075407823,-7.951848412816972,75.92582482579922,67.95917863048513,67.95917863048513,0.2567093676099592,15.831864427868902,0.21261355351019473,0.2434459614855604,-0.6536932766306154,0.8409630317436605,0.46930492280149894
9/9/2005,35.38999939,33.95500183,34.08499908,35.25500107,5639600,31.183736800000002,sell,0.8979223711624833,0.5444830516335195,35.50354006610385,11.769498795083578,22.234797701532433,-2.4702345159130705,84.0213040679471,74.23715547957941,74.23715547957941,0.3534393195289638,23.734041271020274,0.2852597403172108,0.4358488613581637,-0.624049063962411,0.9505953096817386,0.6537828011365063
9/12/2005,35.27000046,34.52000046,35.25,34.99000168,7421400,30.94934464,sell,1.011563447074714,0.6378991307217584,33.47739187478167,11.097826374473485,24.232761782933856,-7.319262562142854,78.60905442383739,71.58622978829624,71.58622978829624,0.3736643163529555,22.379565500308182,0.30044912962526404,0.40286996563551924,-0.6292515057775626,0.8536147487571428,0.575885548740261
9/13/2005,35.49499893,34.15499878,34.99000168,34.22499847,9336400,30.27267265,sell,1.0280447928696574,0.7159282631513383,30.16507261748167,12.69485887098824,25.413363071587273,-23.649920168606034,64.59530019839268,64.43321534543728,64.43321534543728,0.31211652971831916,17.470213746493428,0.2542254738008294,0.283336635430786,-0.6442699731348996,0.5270015966278794,0.36569475641380333
9/14/2005,34.97999954,34.13000107,34.5,34.59999847,5458400,30.60437775,sell,1.0591564476761803,0.7845739000563068,28.255313120862784,12.077333687824401,26.46322110617593,-16.666678553695697,67.8709304465998,66.21531575388116,66.21531575388116,0.27458254761987355,16.17797943303838,0.22603667993666976,0.251873200207982,-0.6369080102236572,0.666666428926086,0.41806164310869565
9/15/2005,35.07500076,34.32500076,34.84999847,35.04999924,4884200,31.00240326,sell,1.1073590139072635,0.8491309228264983,27.370737650473593,11.391999997032675,27.517412585300228,-8.28677427688059,71.55530682204464,68.26990765963916,68.26990765963916,0.2582280910807653,15.978737653440918,0.21375414612685129,0.2470220437568893,-0.6280736396136025,0.8342645144623881,0.4784356719924112
9/16/2005,35.52999878,34.75,35.11999893,35.33000183,4589600,31.25007248,sell,1.1548414700930252,0.9102730322798038,29.220958491233944,10.711248721418357,28.862799837793123,-3.8872110080575077,73.74123420807761,69.51231396523055,69.51231396523055,0.24456843781322135,18.509709769815586,0.20349546509469318,0.3086463764379819,-0.6225766564599176,0.92225577983885,0.5149436879973761
9/19/2005,37.27999878,36.26499939,36.54999924,36.34999847,6083000,32.15229034,sell,1.2602494909291124,0.9802683240096656,37.608662905880045,9.226802689270604,31.129676832441756,-15.109674968936337,80.20598574923508,73.57188280977559,73.57188280977559,0.27998116691944686,28.38186021660944,0.23009115425776905,0.549014367643841,-0.6025521833045258,0.6978065006212733,0.6342338136856556
9/20/2005,36.47999954,35.5,36.30500031,35.85499954,4684400,31.7144413,sell,1.288985211147562,1.042011701437245,34.984579748956065,14.029610492583508,31.95990436510241,-24.782603710395296,70.39383001573343,68.78513812685287,68.78513812685287,0.24697350971031695,20.954969256372557,0.20530172364082588,0.3681837704362323,-0.6122699533412317,0.5043479257920942,0.4935756805859204
9/21/2005,37.11999893,36.18000031,36.47499847,37.02000046,5491200,32.74491119,sell,1.389744207735859,1.111558202696968,36.364615087343346,12.789156321554826,33.102958703442944,-5.083058236118226,77.8382453120903,73.2039530736948,73.2039530736948,0.2781860050388911,23.575458765788518,0.2287429506999623,0.43198768051125613,-0.5893987705022896,0.8983388352776356,0.623422226016559
9/22/2005,37.90999985,35.66999817,37.27000046,36.94499969,6014200,32.67857361,sell,1.4468659333051264,1.1786197488185997,36.20637590978305,10.94392459431446,34.565501542563034,-17.577411014562667,76.39545854663263,72.49247509582457,72.49247509582457,0.2682461844865267,25.26245131546859,0.22127794067618067,0.4730627241434713,-0.5908711782011018,0.6484517797087466,0.6025154990574564
9/23/2005,36.84999847,36.00999832,36.54499817,36.22000122,4111000,32.0372963,sell,1.417296285792169,1.2263550562133136,34.00115894660553,10.27736442217094,35.92357703603169,-31.180797059198973,63.18692782618282,65.83179359597185,65.83179359597185,0.1909412295788553,23.723794524434588,0.16322032683560872,0.4355993726670755,-0.6051042764593619,0.3763840588160208,0.4067918732949092
9/26/2005,37.40000153,35.75,35.75500107,37.26499939,4160000,32.96162033,sell,1.4613393354437392,1.2733519120593988,33.9318932030631,9.21116682500402,37.45042349376944,-12.68437709789244,71.47920522124721,70.09668689651214,70.09668689651214,0.18798742338434038,24.720726378059076,0.16100195752660573,0.4598727575102608,-0.5845889757397453,0.7463124580421512,0.5321154427060271
9/27/2005,37.5,36.70000076,37.22000122,37.43000031,3403400,33.10756302,sell,1.4923550250468551,1.3171525346568902,32.83060740262375,8.73785155449875,38.915337748253066,-10.24545141115843,72.61550801286324,70.71818456900881,70.71818456900881,0.17520249038996494,24.092755848124998,0.15140020944135602,0.4445828755711385,-0.5813496939974496,0.7950909717768315,0.5503781051478092
9/28/2005,38.04999924,36.75,37.55500031,37.97000122,5937200,33.58519745,sell,1.5427251673939466,1.3622670612043015,33.612507402255275,8.016938899341596,40.52740559696017,-1.9535548375352436,76.23122308848275,72.71671029159309,72.71671029159309,0.18045810618964508,25.59556850291368,0.15534728518775132,0.48117349085168404,-0.5707484495402305,0.9609289032492949,0.6091046334486383
9/29/2005,38.5,37.72499847,38.15000153,37.90499878,7256200,33.52770996,sell,1.5594226607213812,1.4016981811077176,34.84255176868868,7.6136510827762125,42.213597565236505,-13.615591892147217,74.84342864891718,72.07897537069991,72.07897537069991,0.15772447961366365,27.228900685912468,0.1382738632509497,0.5209420071354693,-0.5720245710133512,0.7276881621570555,0.5903648406818824
9/30/2005,38.0,37.34500122,37.875,37.45000076,4832400,33.12524796,sell,1.518437405727738,1.425046026031722,33.31710720604095,9.820274642126616,43.089038434755324,-24.027448446080008,65.15668371233414,67.6092906923671,67.6092906923671,0.09339137969601619,23.496832563914335,0.08995837976549126,0.4300732828020133,-0.5809570471411611,0.5194510310784,0.45902349201088755
10/3/2005,39.18500137,37.99000168,38.02500153,39.04499817,8093200,34.53606033,sell,1.5962585812466372,1.459288537074705,37.20104955260498,8.729980735991631,44.43886189638949,-2.769598253040704,77.21652185849352,73.75360130323398,73.75360130323398,0.13697004417193215,28.471068816613347,0.12268685463301243,0.5511864265176187,-0.5496442157386339,0.9446080349391861,0.6395735979717787
10/4/2005,38.99499893,37.375,38.99499893,37.49000168,5851800,33.16064453,sell,1.5149933029889908,1.4704294902575623,33.36160869728395,11.629761257586859,44.71481873654126,-34.876532453768625,55.404956503989425,61.504276933552276,61.504276933552276,0.04456381273142851,21.73184743969709,0.05328787098645571,0.38709926907493286,-0.5801717530359464,0.3024693509246277,0.2796281210969811
10/5/2005,37.88999939,35.625,37.79999924,35.70999908,6616400,31.58617783,wait or hold,1.292064535423492,1.4347564992907484,28.991255033204173,20.227644469725377,42.79271574835475,-78.35402968545188,40.22905641128702,51.0518668793216,51.0518668793216,-0.14269196386725636,8.763610563478796,-0.08734507524793889,0.07134749197041312,-0.61511658803092,-0.5670805937090375,-0.027515163537806475
10/6/2005,34.70000076,32.97499847,34.00999832,33.70000076,11419000,29.80830193,wait or hold,0.9423391164551305,1.336273022723625,24.771427888188928,31.386563230719517,40.57748665985425,-88.32525037951271,29.56169480987741,42.30816982690522,42.30816982690522,-0.39393390626849456,-6.615135342530589,-0.2760329502995136,-0.3030955719410905,-0.6545766762535855,-0.7665050075902542,-0.28444804491129216
10/7/2005,34.59500122,33.70000076,34.25,34.53499985,6205400,30.54688835,wait or hold,0.724208426401951,1.2138601034592904,23.562767054253754,29.855133154906717,38.52048822053236,-74.87921656204064,37.58319834387446,46.41407747514907,46.41407747514907,-0.48965167705733936,-6.292366100652963,-0.34791896822393076,-0.2952367579257146,-0.6381840567029158,-0.4975843312408128,-0.16379625695562594
10/10/2005,35.15000153,33.41500092,35.125,33.88999939,4973600,29.97635841,wait or hold,0.4936021975831011,1.0698085222840525,24.34168851502675,27.09515234770793,36.15138882646884,-85.26569254903251,34.08509816858519,43.819757521206924,43.819757521206924,-0.5762063247009515,-2.753463832681181,-0.4129232918795278,-0.20907125287078554,-0.6508466419409272,-0.7053138509806501,-0.2400301540102905
10/11/2005,35.40000153,34.40000153,34.40000153,35.18000031,4762000,31.11739922,wait or hold,0.41020876163435105,0.9378885701541122,23.720900153727065,24.934658250484098,33.747331973308384,-64.49274057504878,45.84611585528059,49.856506039263714,49.856506039263714,-0.5276798085197612,-1.213758096757033,-0.37647887844133776,-0.17158236159153817,-0.6255214714649043,-0.2898548115009757,-0.06264075207043152
10/12/2005,35.29999924,33.86999893,35.18000031,34.14500046,5791200,30.20193291,wait or hold,0.2576331898813393,0.8018374940995577,21.936956575469324,25.846785319127065,31.921261195372633,-81.15939704311577,39.28490419171393,45.620875771606926,45.620875771606926,-0.5442043042182184,-3.909828743657741,-0.3888891151631242,-0.23722652787904341,-0.6458404861551482,-0.6231879408623155,-0.18710442945745331
10/13/2005,33.75,31.80500031,33.75,32.95000076,7384000,29.16200066,buy,0.039830322244036154,0.6494360597284534,19.36986699101934,33.14902848781628,31.515212466392516,-84.48509098181619,32.93565828270356,41.26214361551864,41.26214361551864,-0.6096057374844173,-13.779161496796942,-0.43800693900409127,-0.47752591363087793,-0.6693006020760703,-0.6897018196363237,-0.31518544659305237
10/14/2005,33.67499924,32.0,32.95000076,33.46500015,6775800,29.61779213,buy,-0.09018428456015215,0.5015119908707323,17.76711957042096,30.40613304466105,31.138167218053834,-77.50678046650577,37.97580623464772,43.75613705892916,43.75613705892916,-0.5916962754308844,-12.639013474240091,-0.4245565640153439,-0.4497654888544984,-0.6591901849867572,-0.5501356093301155,-0.24189963651744362
10/17/2005,34.75,34.04999924,34.25,34.40499878,4854800,30.44972992,buy,-0.11603419375155255,0.37800275394627525,21.983273035721144,28.460528573093708,29.831193705756338,-64.7696734883667,46.53254761688023,48.08869473345216,48.08869473345216,-0.4940369476978278,-6.477255537372564,-0.35121239682415384,-0.29973846226449985,-0.640736224851614,-0.29539346976733416,-0.11458775455735581
10/18/2005,34.33000183,32.15999985,34.04999924,32.22000122,6142200,28.51592445,buy,-0.30926644406312676,0.24054891434439485,19.621086637617925,34.44856037618126,29.659173850670246,-94.37668224399958,33.8633794520463,40.3147477086566,40.3147477086566,-0.5498153584075216,-14.827473738563338,-0.3931031324631816,-0.5030503127035982,-0.6836318808459478,-0.8875336448799916,-0.34302460418191705
10/19/2005,33.20999908,31.09499931,32.22000122,33.16500092,7813400,29.352289199999998,buy,-0.38175023747537296,0.11608908398044127,17.692296851408667,36.01215806527858,29.977259136449995,-74.41284199129119,41.85170506506425,44.49404767639188,44.49404767639188,-0.4978393214558142,-18.31986121386991,-0.3540680578562617,-0.5880832714774965,-0.6650797401991873,-0.4882568398258238,-0.22021618842858415
10/20/2005,32.90499878,29.97999954,32.75,30.53499985,10968800,27.02462959,buy,-0.6439897591920385,-0.035926684654054734,15.259595253409266,35.87406191860444,30.71565980765769,-93.97066594608165,30.06200520262965,36.775963553091096,36.775963553091096,-0.6080630745379838,-20.614466665195174,-0.43684836734801613,-0.643952527716819,-0.7167116610895017,-0.8794133189216331,-0.44701151088713154
10/21/2005,31.53499985,30.18000031,30.40999985,30.625,7919000,27.10428429,buy,-0.834929660150479,-0.19572727975333964,14.355259156179196,33.74804162720697,31.401317573779124,-92.8452523167614,30.83982638404177,37.17756415493967,37.17756415493967,-0.6392023803971394,-19.39278247102778,-0.46023462760770495,-0.6142068530309824,-0.7149447870460184,-0.8569050463352281,-0.43521050735559175
10/24/2005,32.27000046,30.20000076,30.22500038,32.06000137,5077000,28.37432289,buy,-0.8605385370654659,-0.328689531215765,16.234360486594028,30.749936272805172,31.36511817686239,-73.7041483003315,42.695159676232606,43.35575980307788,43.35575980307788,-0.531849005849701,-14.515575786211144,-0.37961003153360573,-0.49545619380598105,-0.6867729820766262,-0.4740829660066299,-0.2536646921187067
10/25/2005,33.79499817,32.10499954,32.46500015,33.50999832,7032600,29.65761757,buy,-0.7551264927230932,-0.41397692351723075,21.554222340856157,28.467198026336625,30.111897647678468,-34.87089513042776,52.32852158841046,48.83157054295373,48.83157054295373,-0.3411495692058624,-6.912975685480468,-0.2363908256559769,-0.31034741492310025,-0.6583067853637871,0.3025820973914448,-0.09275840467324126
10/26/2005,34.79499817,32.83000183,33.5,33.02500153,5942200,29.22837448,buy,-0.7026224811693851,-0.4717060350476617,23.98992420636618,26.103667702662932,28.2624470018111,-43.819172103292935,49.107087067741574,47.18839362451083,47.18839362451083,-0.2309164461217234,-2.1137434962967525,-0.15360347909969452,-0.19349528560620632,-0.6678281943772582,0.12361655793414128,-0.14104303504538618
10/27/2005,33.66999817,31.88500023,33.625,31.94499969,5421000,28.27252579,buy,-0.7396337586531203,-0.5252915797687534,22.18777453478239,28.1197424030395,27.085944683300255,-63.745397997538376,42.33607139615265,43.66480294552091,43.66480294552091,-0.2143421788843669,-5.931967868257111,-0.14115586292675752,-0.28646174992497375,-0.6890306836843343,-0.27490795995076756,-0.2445834825822143
10/28/2005,33.39500046,31.12000084,31.97500038,33.00999832,7431400,29.21510124,buy,-0.675245167918824,-0.5552822973987676,20.113882331566774,28.63444546994441,26.399711332890643,-44.0959839942789,50.230869721898785,47.80382883338112,47.80382883338112,-0.1199628705200565,-8.520563138377636,-0.07027505785934995,-0.3494890962440256,-0.6681227359121102,0.11808032011442204,-0.12295851764207144
10/31/2005,34.47999954,33.15499878,33.77999878,33.88999939,6496000,29.993927000000003,buy,-0.546903649203692,-0.5536065677597525,23.393058947694225,26.885744495738393,25.010205964425207,-26.503758073520178,56.033674083219665,51.006938015671224,51.006938015671224,0.006702918556060422,-3.492685548044168,0.024853559417196136,-0.2270698885009036,-0.6508466419409272,0.46992483852959643,-0.028835394822733895
11/1/2005,34.20000076,33.22000122,33.5,33.96500015,5066200,30.06030273,buy,-0.434135690450816,-0.5297123922979652,22.410472763630036,25.75645391647466,23.719950979421586,-17.23776232933213,56.5375474007368,51.281345233821234,51.281345233821234,0.09557670184714917,-3.3459811528446224,0.09159960172492787,-0.22349791692639853,-0.6493742344384339,0.6552447534133574,-0.020771959320988076
11/2/2005,35.5,34.125,34.125,35.25,6375000,31.19758224,buy,-0.23833019985151793,-0.4714359538086757,26.531166179637864,24.05230519555633,22.375707018329617,-4.528985129830951,64.63819612023141,55.84452525849674,55.84452525849674,0.23310575395715777,2.4788609840815354,0.1948867533544596,-0.08167414599724976,-0.6241472444740284,0.9094202974033809,0.11331674308228212
11/3/2005,36.27500153,35.11000061,35.375,35.91500092,5417000,31.78613472,buy,-0.029156819609006845,-0.38298012696874195,28.582941771391855,22.818326054438547,21.578508591948925,-5.718832346230925,68.21498975590751,58.035120537280136,58.035120537280136,0.3538233073597351,5.764615716953308,0.2855481230893764,-0.0016722994905414845,-0.6110920121834095,0.8856233530753814,0.17768722087067124
11/4/2005,35.81499863,34.07500076,35.79499817,34.22999954,5376800,30.29484367,buy,0.0006416653639931269,-0.30625576850219494,26.288907378091082,25.501513129721033,20.14578278379796,-32.4861214221792,52.51309971622007,51.11535094649091,51.11535094649091,0.30689743386618806,0.7873942483700489,0.2503058252874597,-0.12285812750621705,-0.6441717926232822,0.35027757155641615,-0.025649688990674102
11/7/2005,33.88000107,32.82500076,33.45000076,33.23500061,7007400,29.41423798,buy,-0.055392389686140575,-0.25608309273898405,24.66129266493553,29.43089162148082,19.33662244897268,-48.292294821021954,45.325500333620006,47.51273621123055,47.51273621123055,0.20069070305284348,-4.769598956545291,0.17054238228183127,-0.2581602889764071,-0.6637055132083114,0.034154103579560946,-0.1315122524875667
11/8/2005,33.78499985,32.54999924,33.08000183,33.18000031,4910400,29.36555672,buy,-0.10304995088092994,-0.22547646436737323,23.29596858123373,29.03429445343132,18.738692075972796,-49.166008603597,44.92891977550437,47.314224866319115,47.314224866319115,0.12242651348644329,-5.7383258721975885,0.11176436344955487,-0.2817469374981598,-0.6647852736581973,0.016679827928059998,-0.13734549345276303
11/9/2005,34.06000137,32.25999832,33.25,32.89500046,6158800,29.11331558,buy,-0.16194916832304074,-0.21277100515850672,21.4334415791108,28.00107990840765,18.3491805203168,-55.455297677528606,42.67179243525049,46.23621721876909,46.23621721876909,0.05082183683546598,-6.567638329296852,0.05798777602192384,-0.3019391104668856,-0.6703803625259563,-0.10910595355057207,-0.1690226672348918
11/10/2005,32.54000092,31.06500053,32.52500153,31.625,7561000,27.98932838,buy,-0.30756028225953,-0.23172886057871142,19.708268064785457,31.00329714467262,18.6294592787514,-76.54322535995334,33.83487661599496,41.67907942531055,41.67907942531055,-0.0758314216808186,-11.295029079887161,-0.03713143054602264,-0.41704203809027784,-0.6953128859493719,-0.5308645071990667,-0.3029338191275265
11/11/2005,32.39500046,31.18000031,31.18000031,32.06999969,4358600,28.38316154,buy,-0.3826395525928774,-0.26191099898154463,18.635766177638885,29.316132418369754,18.889718125869248,-80.71019257002054,38.999030655148395,43.77037568408165,43.77037568408165,-0.12072855361133278,-10.68036624073087,-0.07085010163617722,-0.4020761729818433,-0.6865766960472535,-0.6142038514004108,-0.24148123558643075
11/14/2005,32.97000122,31.56500053,32.5,31.75499916,8027800,28.10437012,buy,-0.4622300254382239,-0.3019748042728805,20.05044538915298,27.455486890557435,18.65385356808505,-86.75626684140748,36.637496572029576,42.60572572260058,42.60572572260058,-0.1602552211653434,-7.405041501404455,-0.10053544333253062,-0.3223282768793859,-0.6927607552976047,-0.7351253368281496,-0.27570438725797153
11/15/2005,33.94499969,31.54999924,31.59000015,33.06499863,8263800,29.26377869,buy,-0.41481827267458016,-0.32454349795322046,22.206316604336713,24.590408805871398,17.685333354098294,-61.61232790550329,51.02592273850701,48.71701645530347,48.71701645530347,-0.0902747747213597,-2.384092201534685,-0.04797868625417612,-0.20007775976453424,-0.6670429752659055,-0.2322465581100659,-0.09612456793766455
11/16/2005,34.94499969,33.22999954,33.25,34.85499954,8152400,30.84799385,buy,-0.230152943418652,-0.3056653870463068,24.718105396500366,22.597004621843666,16.742304167661725,-27.255311275372044,64.04255666253135,55.66388147920696,55.66388147920696,0.0755124436276548,2.1211007746567,0.07653093042053083,-0.09038492318164348,-0.6319018544378782,0.4548937744925592,0.1080085391913097
11/17/2005,35.41999817,34.34999847,35.24499893,34.78499985,6655800,30.78604126,wait or hold,-0.0884333251868199,-0.2622189746744094,25.649383117703216,21.527380827228423,16.170522227653287,-28.598875124975972,63.27527272048197,55.34812950558936,55.34812950558936,0.1737856494875895,4.122002290474793,0.15033613273266533,-0.041666796310496634,-0.6332760814287541,0.4280224975004805,0.09873019115447867
11/18/2005,35.05500031,33.97000122,34.95000076,34.43500137,5141600,30.47629356,wait or hold,-0.004311755738378054,-0.21063753088720313,24.388718501093386,22.19068018555426,15.352549682310965,-35.31669494881087,59.14194462984088,53.70767692950862,53.70767692950862,0.20632577514882508,2.198038315539126,0.17477443752464228,-0.08851164113940779,-0.6401472169720908,0.29366610102378266,0.05052561537809108
11/21/2005,36.15000153,34.65499878,34.65499878,36.06999969,5705400,31.92331314,wait or hold,0.1920718099955181,-0.13009566271065887,27.43522039382539,20.477441737023348,15.293210074537125,-3.934775444380803,69.86894206041906,59.714505842458124,59.714505842458124,0.32216747270617696,6.957778656802041,0.2617739390631091,0.02737893717551443,-0.6080490916606676,0.921304491112384,0.2270358319683563
11/22/2005,36.84999847,36.125,36.5,36.41500092,4670400,32.22865677,wait or hold,0.37126619112090253,-0.02982329194434655,29.705536947468598,19.73130661234899,15.641959512274045,-7.519407171992966,71.69815931051888,60.86836369934393,60.86836369934393,0.4010894830652491,9.974230335119607,0.32104599486368657,0.10082376911911695,-0.6012760616350863,0.8496118565601407,0.2609418584566796
11/23/2005,36.36999893,35.25999832,35.75,35.70999908,4960400,31.6047039,wait or hold,0.45119023251133683,0.06637941294679015,28.074273749788848,22.760412071516615,15.27133528009412,-19.706133032780286,62.63308975423304,57.2592265632393,57.2592265632393,0.38481081956454666,5.313861678272232,0.308820383187266,-0.012647298644944183,-0.61511658803092,0.6058773393443944,0.1548876347007062
11/25/2005,36.46500015,35.79499817,35.85499954,36.45000076,1428000,32.25964355,wait or hold,0.5676984874661457,0.1666432278506613,27.497702870903083,21.91329467813911,14.98780804274136,-6.91439675776273,67.64290693103266,59.94399323326845,59.94399323326845,0.4010552596154844,5.5844081927639735,0.3210202923478116,-0.006060008209429535,-0.6005889482378077,0.8617120648447454,0.23377930171648598
11/28/2005,35.65000153,34.20000076,35.59999847,34.44499969,5447000,30.48513222,wait or hold,0.4925672800882879,0.23182803829818663,24.56360124920857,27.139150573235405,14.273068540825415,-41.57302742272019,47.50863486921281,50.65889559900589,50.65889559900589,0.2607392417901012,-2.5755493240268343,0.21564007204650615,-0.20473937469671322,-0.639950930942718,0.16853945154559624,-0.03906259510402721
11/29/2005,35.72000122,34.79999924,35.07500076,35.52000046,6579600,31.4365387,wait or hold,0.5138455433557212,0.2882315393096936,23.39753453294861,25.479981241060845,13.557888018091775,-22.990466440857595,55.747900525023034,54.70955940816879,54.70955940816879,0.2256140040460276,-2.082446708112233,0.18926029481955697,-0.19273326864266305,-0.6188466221472593,0.5401906711828479,0.07996585678817403
11/30/2005,36.29999924,35.50999832,36.0,35.875,5607400,31.750726699999998,wait or hold,0.5529798092927436,0.34118119330630364,25.358065281906278,24.481292003634422,12.715124488608677,-16.853912138126052,58.27138377386195,55.99434173488944,55.99434173488944,0.21179861598643995,0.8767732782718554,0.1788846537499884,-0.12068191899022929,-0.6118773062886242,0.662921757237479,0.1177190889922608
12/1/2005,37.41500092,36.15000153,36.24499893,37.34000015,7021400,33.0473175,wait or hold,0.694204903568945,0.411785935358832,28.934730708119787,22.620049810078115,12.681793282149664,-1.2028991605823682,67.26014698416836,60.921086372753976,60.921086372753976,0.28241896821011303,6.314680898041672,0.23192199325279317,0.011720736132556864,-0.5831165682372519,0.9759420167883528,0.2624911102562044
12/2/2005,37.74499893,36.70000076,37.42499924,37.59500122,4964400,33.27301025,wait or hold,0.8172821436568469,0.4928851770184351,29.073899054455556,21.429468169558472,12.857127878797712,-2.4212706619199342,68.63229155844147,61.72435909475364,61.72435909475364,0.32439696663841183,7.6444308848970834,0.26344833494021924,0.04409760628552939,-0.5781104124514729,0.9515745867616012,0.2860952188792336
12/5/2005,38.82500076,37.61000061,38.54999924,37.88499832,5061000,33.52964401,wait or hold,0.9275300959323189,0.579814160801212,32.747220145115485,20.08916914314792,13.649980919184475,-12.920993039187712,70.28464342421022,62.664259088692255,62.664259088692255,0.347715935131107,12.658051001967564,0.2809613607162036,0.16616967181010778,-0.5724172180659586,0.7415801392162458,0.3137141096296665
12/6/2005,37.99499893,37.17499924,37.45000076,37.93000031,6425200,33.56948471,wait or hold,1.0069264555101753,0.6652366197430047,31.33993586931865,21.50558879400182,14.004240278870592,-15.996429934648072,70.56535696960279,62.81684980210642,62.81684980210642,0.3416898357671706,9.834347075316831,0.27643563593886955,0.09741787915184652,-0.5715337434491264,0.6800714013070384,0.3181979762862204
12/7/2005,39.18999863,37.65999985,38.125,38.17499924,5355800,33.78631973,wait or hold,1.0772007093598646,0.7476294376663768,35.05714610959261,19.796162117118687,14.991183605212214,-19.44444240634212,72.23150659302189,63.68697727886592,63.68697727886592,0.32957127169348777,15.260983992473921,0.26733434464218075,0.22954611421173943,-0.5667239486865823,0.6111111518731576,0.34376660685814464
12/8/2005,39.34999847,38.15999985,38.27999878,39.32500076,6130000,34.80411148,sell,1.211721106877654,0.8404477715086324,33.708070470162205,18.560422275254414,15.990417436928514,-0.46464168731686506,78.8023828255551,67.52814057499305,67.52814057499305,0.37127333536902174,15.147648194907791,0.2986534536452292,0.22678660420026775,-0.544147232584949,0.9907071662536626,0.4566389019049266
12/9/2005,39.04999924,37.99000168,38.90499878,38.34000015,5071000,33.93236542,sell,1.2247302459423395,0.9173042663953739,31.344206307394252,18.15182637707586,16.752059677024512,-19.611626584587373,63.73230570444773,61.52504727146967,61.52504727146967,0.3074259795469656,13.192379930318392,0.25070277398328833,0.17917955976137767,-0.5634846671406055,0.6077674683082526,0.28023845591716356
12/12/2005,39.98500061,39.0,39.45000076,39.40000153,5139400,34.87049103,sell,1.3055240661618868,0.9949482263486764,33.51473637272632,16.606447079654007,17.96511373976794,-10.112343909568175,70.75422691051524,65.11871104422104,65.11871104422104,0.31057583981321035,16.90828929307231,0.2530683839394394,0.26965484919725546,-0.5426748248861367,0.7977531218086364,0.3858379960528038
12/13/2005,41.0,39.54499817,40.0,39.58000183,7952800,35.029796600000005,sell,1.3683052989122046,1.0696196408613823,35.96468255659429,15.246784198434685,19.57157595804282,-20.88232836331905,71.83458025626572,65.70450900187168,65.70450900187168,0.29868565805082237,20.717898358159605,0.24413861246386714,0.3624115472631828,-0.53914107679917,0.5823534327336191,0.4030516250543126
12/14/2005,40.45000076,39.40000153,39.65000153,40.41999817,6184000,35.77324295,sell,1.4689079066880808,1.149477294026722,33.99745319927959,15.168150655139497,20.90915727488081,-8.52943962976091,76.55068850928009,68.37377317803924,68.37377317803924,0.31943061266135886,18.82930254414009,0.25971850078224445,0.3164278495407582,-0.522650351730745,0.8294112074047817,0.48148775245195874
12/15/2005,41.0,39.79999924,40.41999817,40.36999893,6274800,35.72898102,sell,1.5269993790288723,1.2249817110271521,34.7440012427631,14.211412209669183,22.411460801648847,-9.264722653116046,75.67079796609312,68.03434069113311,68.03434069113311,0.30201766800172014,20.532589033093913,0.24664102058600101,0.3578996194458528,-0.5236319318653324,0.8147055469376789,0.4715135543101716
12/16/2005,40.43500137,38.70000076,40.43500137,38.82500076,5594600,34.3616066,sell,1.4318632212499054,1.266358013071703,31.63688759911344,18.610329321808255,22.6624232374578,-35.08062860301968,53.501322334071844,58.388493474951794,58.388493474951794,0.16550520817820247,13.026558277305185,0.14411735070835552,0.17514211950476533,-0.5539631831332723,0.2983874279396064,0.18807105811149838
12/19/2005,39.29499817,38.15499878,38.99000168,38.50500107,3919400,34.0783844,sell,1.3154817751135894,1.2761827654800804,29.754049173174536,20.347953527309283,22.384670973283608,-45.44623254104363,49.96416696840305,56.59861208971185,56.59861208971185,0.039299009633509074,9.406095645865253,0.049333895389798155,0.08699077551489331,-0.5602453853983098,0.09107534917912741,0.1354755279976807
12/20/2005,38.96500015,38.27999878,38.47499847,38.77999878,3520000,34.32177353,sell,1.2312456243777703,1.2671953372596185,28.650668027497,19.59338233787274,22.12675815655043,-45.773235470732,53.07462053579772,57.79594619345481,57.79594619345481,-0.03594971288184823,9.057285689624262,-0.00717944555983141,0.07849791988570454,-0.5548466575537856,0.08453529058536002,0.17065910073553092
12/21/2005,39.18500137,38.11999893,39.01499939,38.43500137,4245600,34.01644516,sell,1.1236961901056404,1.238495507828823,28.18337498243015,18.44794503066007,22.037521772602908,-59.651141473224975,48.64829119005889,55.71917867893597,55.71917867893597,-0.11479931772318253,9.73542995177008,-0.06639712332482539,0.09500943628917558,-0.5616196125855046,-0.19302282946449945,0.10963344325341162
12/22/2005,38.85499954,37.91999817,38.65999985,38.02500153,5356800,33.65357208,sell,0.9939216182968877,1.189580729922436,26.707204005078044,18.602064346089687,21.741161685690695,-77.77772232390357,43.60610617693622,53.269432387920205,53.269432387920205,-0.19565911162554817,8.105139658988357,-0.12712449449034324,0.055314984217122554,-0.5696686888940257,-0.5555544464780715,0.03764783242866976
12/23/2005,38.0,36.75999832,37.32500076,37.99000168,3915000,33.62259674,sell,0.8781276310588026,1.1272901101497093,24.813566210953493,23.784928192078763,20.33940761560917,-70.99049828678373,43.16058556546545,53.054990401179325,53.054990401179325,-0.2491624790909066,1.0286380188747302,-0.16730662578042632,-0.11698430286996775,-0.5703558024876232,-0.41980996573567464,0.031346470749451516
12/27/2005,37.60499954,35.89500046,37.58499908,36.32500076,5811000,32.1490097,sell,0.6445781074880585,1.0307477096173792,22.027957824028384,25.749923159293076,19.443031584239176,-91.57687877088422,27.542703379375197,43.98391781590745,43.98391781590745,-0.3861696021293206,-3.7219653352646915,-0.2702017979239473,-0.23265241301522588,-0.6030429358748886,-0.8315375754176844,-0.23520631607632736
12/28/2005,37.41999817,36.42499924,36.63999939,37.125,3684600,32.85702896,sell,0.5180696952586814,0.9282121067456396,20.71875190302635,24.219506579835116,18.61068241225275,-75.90598137448606,39.761556447263104,48.53682462700288,48.53682462700288,-0.4101424114869582,-3.5007546768087643,-0.2882058716605099,-0.22726635636090842,-0.5873374299178161,-0.5181196274897213,-0.10141949128275385
12/29/2005,37.68500137,36.58000183,37.09000015,36.68500137,3347800,32.46762085,sell,0.37794988390883333,0.8181596621782784,20.916750273188157,22.7500722134441,17.5812359692173,-84.5249562941194,35.87916611981295,46.30749762163916,46.30749762163916,-0.4402097782694451,-1.8333219402559422,-0.31078708358858564,-0.18666755678667213,-0.595975439504636,-0.690499125882388,-0.16692809794857277
12/30/2005,37.04999924,35.99000168,36.0,36.68500137,3262600,32.46762085,sell,0.2638622837469029,0.7073001864920033,19.68306313016733,24.69115748353091,17.131579446707754,-84.5249562941194,35.87916611981295,46.30749762163916,46.30749762163916,-0.4434379027451004,-5.008094353363582,-0.3132114715784724,-0.26396719596734286,-0.595975439504636,-0.690499125882388,-0.16692809794857277
1/3/2006,39.52500153,37.0,37.0,39.48500061,8827000,34.94571304,sell,0.3948321969627884,0.6448065885861604,29.494534652554965,21.10030373885042,17.092972456358133,-29.67677818830909,65.26006175717143,59.90054527641962,59.90054527641962,-0.24997439162337198,8.394230913704543,-0.16791638882004634,0.06235380362590459,-0.5410061313542707,0.40646443623381834,0.23250258676672964
1/4/2006,39.59500122,38.75500107,38.875,39.52500153,6206600,34.98112488,sell,0.49613539669635287,0.615072350208199,28.557669573660366,20.166136459618606,17.102235509565322,-28.893214552571777,65.52336102184367,60.05612398040271,60.05612398040271,-0.11893695351184608,8.39153311404176,-0.06950457304933622,0.06228811736138584,-0.540220837249056,0.42213570894856445,0.23707425530180082
1/5/2006,39.32500076,37.75500107,39.32500076,38.04000092,6880800,33.66684341,sell,0.45138844872116834,0.5823355699107928,25.95054858243192,23.48291183779299,16.23720689677888,-57.98235742838092,49.33005156787267,51.991480029835216,51.991480029835216,-0.13094712118962448,2.4676367446389307,-0.07852445641942252,-0.08194743477077204,-0.5693742223530356,-0.1596471485676184,9.529834012012017e-05
1/6/2006,39.46500015,38.63000107,38.63000107,38.90000153,5636200,34.42796707,sell,0.47979030795626443,0.5618265175198872,24.767755229104537,21.76051387583911,15.539067579039257,-33.810562385988675,56.58018979223825,55.70148015908029,55.70148015908029,-0.08203620956362279,3.007241353265428,-0.04179135408252499,-0.06880909409008495,-0.55249077543446,0.3237887522802265,0.10911337357632833
1/9/2006,39.20500183,38.06999969,38.90999985,39.08000183,5280400,34.58726501,sell,0.5109337793458266,0.5516479698850751,23.301745844574473,23.392905043199804,14.443078757070563,-13.918899573415212,58.04604146877395,56.4598905534978,56.4598905534978,-0.04071419053924852,-0.09115919862533062,-0.010757666442512859,-0.14424922444699007,-0.5489570273474933,0.7216220085316956,0.131399206071799
1/10/2006,39.95000076,38.90999985,39.11999893,39.0,5138800,34.51648331,sell,0.523129415456296,0.5459442589993193,25.96897194553316,22.10197443562651,13.986027049906017,-23.427883840107263,57.047395821793884,56.000986268558506,56.000986268558506,-0.022814843543023322,3.86699750990665,0.002685111929797035,-0.04787567523544878,-0.550527615361604,0.5314423231978549,0.11791433811522833
1/11/2006,39.38999939,38.38000107,38.95500183,39.18999863,5516600,34.68462753,sell,0.5418793981015284,0.5451312868197612,24.551950708968477,23.75931865402731,13.104216357204178,-18.742344605991846,59.00174222975984,56.897020505659775,56.897020505659775,-0.003251888718232787,0.7926320549411656,0.017377294056476478,-0.12273059692910426,-0.5467975810489456,0.6251531078801631,0.1442442368946124
1/12/2006,40.61999893,39.04499817,39.45999908,39.15000153,6726400,34.66693497,sell,0.5472036397968054,0.5455457574151701,29.0465711036138,21.764871603659042,13.191831339770705,-31.11106615871567,58.34970033750474,56.63554352997623,56.63554352997623,0.0016578823816353339,7.281699499954758,0.02106463330791497,0.03526579048047118,-0.5475828001602984,0.37777867682568655,0.1365607555968893
1/13/2006,40.23500061,38.95000076,39.0,40.09500122,5704200,35.50373077,sell,0.620523705969731,0.5605413471260823,27.051378088300016,20.77766158413965,13.186483461890722,-11.111066243371729,68.0748031074861,61.175368568417205,61.175368568417205,0.059982358843648775,6.273716504160365,0.06486751678322866,0.01072333145145099,-0.5290306597098566,0.7777786751325655,0.2699631734832435
1/17/2006,41.27000046,40.5,40.67499924,41.27000046,6236800,36.54415512,sell,0.7646288401387054,0.601358845728607,30.918200763505975,19.46128329624292,13.86896580045388,-0.0,76.1522788603838,65.94877632965667,65.94877632965667,0.16326999441009837,11.456917467263054,0.14243865911666242,0.13692436639636374,-0.505963190841542,1.0,0.4102294021407058
1/18/2006,41.0,39.30500031,40.875,40.25500107,5511800,35.64538574,sell,0.7878493917517844,0.6386569549332425,27.75167563764922,23.696495507590424,13.441330284323326,-19.22347773724296,60.67976291068147,59.18001580792177,59.18001580792177,0.14919243681854188,4.0551801300587975,0.1318661233271372,-0.043293788175520764,-0.5258895584791785,0.6155304452551409,0.21132988243515638
1/19/2006,42.06999969,39.86999893,39.97999954,42.01499939,7155000,37.20384216,sell,0.937462517353282,0.6984180674172504,30.047157066988046,21.09195835375646,13.732052853803404,-0.9046104934498684,72.13362171098042,65.74530254908436,65.74530254908436,0.23904444993603158,8.955198713231585,0.19934683638884998,0.0760122971659094,-0.4913374455306745,0.9819077901310027,0.4042503403762143
1/20/2006,43.15999985,41.77000046,42.54999924,42.40499878,7738000,37.54918289,sell,1.0751085070709223,0.7737561553479849,33.41287870658951,19.624324839083364,14.608184082656333,-10.530003663864237,74.08518347101482,67.01143923604042,67.01143923604042,0.3013523517229374,13.788553867506145,0.24614135435320228,0.19369525545133226,-0.48368101607844194,0.7893999267227152,0.44145567185580803
1/23/2006,42.40000153,41.42499924,42.0,42.28499985,6137600,37.4429245,sell,1.1611262936922415,0.8512301830168365,31.73619363219437,20.4061366172401,15.116820650703868,-14.204545800435373,72.26837030685692,66.20062627194879,66.20062627194879,0.309896110675405,11.33005701495427,0.25255789335256806,0.13383555689642024,-0.4860368232039054,0.7159090839912927,0.4176299937850583
1/24/2006,42.47999954,41.52500153,41.81000137,41.61999893,5526400,36.85408783,sell,1.1622384315447363,0.9134318327224165,30.567577337499085,19.385266127541833,15.636028825218258,-28.492160362707747,62.37820711907929,61.74218271434006,61.74218271434006,0.2488065988223198,11.182311209957252,0.20667841133085996,0.13023822898416593,-0.4990920554945243,0.43015679274584495,0.2866189646025119
1/25/2006,41.95000076,39.84999847,41.625,40.61500168,7735400,35.96416473,sell,1.0696941614121016,0.9446842984603535,27.329791203895553,25.78050090128218,14.727535250223633,-47.08600822292877,50.2526077138607,55.643159738595735,55.643159738595735,0.1250098629517481,1.5492903026133718,0.1137045121224447,-0.1043074150699399,-0.5188220621089261,0.058279835541424685,0.10739963239932027
1/26/2006,40.25,38.79499817,40.15000153,40.06999969,7458000,35.48158264,sell,0.9415217777880898,0.9440517943259008,24.871021245469493,28.676207025552774,14.183155847642288,-60.707270390341165,44.74915576592273,52.60822182163515,52.60822182163515,-0.0025300165378110417,-3.8051857800832813,0.01791943493662096,-0.23467867175754464,-0.5295214872740814,-0.21414540780682334,0.01821820958471898
1/27/2006,41.25,39.90999985,41.25,40.19499969,6292000,35.59226608,sell,0.840343736170496,0.92331018269482,28.18399408668535,26.766813021471286,13.35428754030041,-58.251474789737486,46.322161513813015,53.23820050078034,53.23820050078034,-0.08296644652432406,1.4171810652140628,-0.042489981205574456,-0.10752402245295689,-0.5270674996370006,-0.16502949579474968,0.036730085770079635
1/30/2006,42.09000015,40.47499847,40.5,41.70999908,5381800,36.93378448,sell,0.8723512761426946,0.9131184013843949,29.670288038204305,24.302406834735656,13.11080626737635,-30.334751884601854,61.728921748173796,60.151996251731205,60.151996251731205,-0.04076712524170034,5.367881203468649,-0.010797421494661674,-0.011332026473259038,-0.4973251814510409,0.39330496230796275,0.2398914547963149
1/31/2006,42.44499969,41.125,41.5,42.27000046,6325600,37.42965698,sell,0.9321595582729074,0.9169266327620974,29.490922612426797,22.732371039230177,13.098723087392605,-18.619238852609076,65.94423949280494,62.366908616529486,62.366908616529486,0.015232925510810014,6.75855157319662,0.03125977038294514,0.022528138543734144,-0.4863312897448955,0.6276152229478185,0.3049764883314272
2/1/2006,43.45500183,41.26499939,42.57500076,41.47499847,8615000,36.72569275,sell,0.9049760358592849,0.914536513381535,31.211640523590916,20.379931647243684,13.66275093837675,-42.48930911783871,55.77031274246509,57.48211189286001,57.48211189286001,-0.009560477522250088,10.831708876347232,0.012639413889544926,0.12170173239245341,-0.5019386901842124,0.15021381764322594,0.1614371033764881
2/2/2006,41.34999847,39.36000061,41.34999847,40.35499954,10005200,35.73394012,sell,0.7840206431326493,0.8884333393317578,28.178821156464767,27.151773278201247,12.81942605006358,-66.5236020436945,44.48898074768223,51.37698156985114,51.37698156985114,-0.10441269619910853,1.0270478782635202,-0.0585965565659019,-0.11702301975404594,-0.5239263984063225,-0.3304720408738899,-0.017961692767508253
2/3/2006,40.08499908,39.26499939,39.875,39.55500031,8316000,35.02555847,sell,0.616502711473764,0.834047213760159,26.73689749576635,26.208391014398696,11.975053652726315,-83.6909540109675,38.071355023481544,47.49654253544387,47.49654253544387,-0.217544502286395,0.5285064813676534,-0.1435608737787737,-0.12916154972790206,-0.5396319041670758,-0.67381908021935,-0.1319881024346723
2/6/2006,40.72000122,39.92499924,39.92499924,40.125,9452200,35.53027725,sell,0.5237008575360278,0.7719779425153328,28.281513120719538,24.75061806767933,11.595266228605542,-71.45921061358136,44.70210113639209,50.37263741181021,50.37263741181021,-0.248277084979305,3.530895053040208,-0.16664167656094253,-0.056059127547257726,-0.5284417266278767,-0.4291842122716273,-0.04747427044136188
2/7/2006,39.27500153,36.95500183,39.125,37.0,11581000,32.76311874,wait or hold,0.19573700208668043,0.6567297544296024,24.317886126293743,34.41252196002526,11.994753693690882,-99.30772046153848,26.531859508835993,38.062290109097496,38.062290109097496,-0.4609927523429219,-10.094635833731516,-0.3263955253069418,-0.38781475728752024,-0.589791417554897,-0.9861544092307696,-0.40921290162142954
2/8/2006,37.09999847,35.67499924,37.0,36.97000122,10301600,32.73654556,wait or hold,-0.06583842269085238,0.5122161190055114,22.772819400895404,37.933208490974394,12.921803378968525,-83.35473587547993,26.411625243737575,37.96636927699225,37.96636927699225,-0.5780545416963638,-15.16038909007899,-0.4143113409216802,-0.5111561650927703,-0.590380350636877,-0.6670947175095987,-0.4120315280707222
2/9/2006,37.65000153,34.75,37.09999847,35.15000153,11164600,31.12495804,wait or hold,-0.41521129859655304,0.3267306354850985,19.989339194099436,37.19535367742978,14.147995766008993,-95.40492307972328,19.997350775867133,32.598859619133606,32.598859619133606,-0.7419419340816515,-17.206014483330343,-0.537394149155737,-0.5609632328826673,-0.6261104045468844,-0.9080984615944655,-0.5697553963527909
2/10/2006,35.47499847,34.08000183,35.32500076,34.68500137,12633000,30.71321106,buy,-0.7212987634388384,0.11712475570031108,18.79901297213064,37.84045587307451,15.538759066341624,-93.54667157333333,18.64745407104124,31.378271184170686,31.378271184170686,-0.8384235191391495,-19.04144290094387,-0.6098538073326885,-0.6056524061404749,-0.6352392416979291,-0.8709334314666666,-0.6056222958675115
2/13/2006,34.79999924,33.84999847,34.34500122,34.13000107,8728400,30.22175789,buy,-0.9971644790451961,-0.10573309124879042,18.012376534408055,37.27013143822515,16.91707403887705,-97.08482559031613,17.045248239204753,29.937461514934895,29.937461514934895,-0.8914313877964057,-19.257754903817094,-0.6496638088091831,-0.6109191898959067,-0.6461349526961382,-0.9416965118063225,-0.6479603798162485
2/14/2006,34.56499863,32.99000168,33.0,34.50500107,11825400,30.55382538,buy,-1.1720203590326292,-0.3189905448055583,16.760218535536843,38.47505771782443,18.51680825662906,-85.52317851615129,22.307398728511956,32.202693957056766,32.202693957056766,-0.8530298142270709,-21.714839182287584,-0.6208234358755005,-0.6707444949722954,-0.6387729897848958,-0.7104635703230258,-0.5813966945872153
2/15/2006,35.42499924,34.18500137,34.92499924,34.66999817,9863200,30.699932099999998,buy,-1.2824971874098878,-0.5116918733264242,19.687639398974387,36.33353971017055,19.316577977932948,-83.94652206478946,24.757461810843097,33.22567164043295,33.22567164043295,-0.7708053140834636,-16.64590031119616,-0.5590711422059278,-0.5473255235378355,-0.6355337830364622,-0.6789304412957893,-0.551336572170465
2/16/2006,36.125,34.81000137,34.81999969,36.02999878,8349600,31.904199600000005,buy,-1.2459476773648177,-0.658543034134103,21.555350140045537,33.94596025690741,19.53145787424508,-70.95081646988795,42.26565804825561,41.11285114722071,41.11285114722071,-0.5874046432307147,-12.390610116861875,-0.42133345981302206,-0.4437173419645587,-0.6088343855695635,-0.4190163293977591,-0.31957239456451103
2/17/2006,36.74000168,35.72499847,36.5,35.77500153,7030600,31.67841148,buy,-1.2234548483851384,-0.7715253969843101,23.39177765596015,32.3489809577798,19.284167748927093,-73.38748389793385,40.218519522797294,40.155140267471516,40.155140267471516,-0.4519294514008283,-8.95720330181965,-0.3195887995693042,-0.3601204495172571,-0.6138404663614803,-0.46774967795867695,-0.34771465685717506
2/21/2006,37.25,36.0,36.77000046,36.31499863,5913000,32.15655899,buy,-1.1488130644451786,-0.846982930476484,24.15875240281325,30.13063959821022,18.692448595833582,-68.22745434934372,46.607644686835755,43.174010506286294,43.174010506286294,-0.3018301339686946,-5.97188719539697,-0.20686111969915566,-0.28743370922873557,-0.6032392967018043,-0.3645490869868744,-0.25900538155846287
2/22/2006,36.18999863,35.04499817,36.125,35.27500153,6527600,31.23564911,buy,-1.16020387914228,-0.9096271202096432,22.714422309952678,32.82492828162627,18.65757517658491,-72.66745541417849,37.58260534163642,39.084702802203864,39.084702802203864,-0.25057675893263676,-10.110505971673593,-0.1683687790798073,-0.3882011648081365,-0.6236564169098036,-0.4533491082835698,-0.37916938140133594
2/23/2006,35.90499878,34.22499847,34.91999817,34.92499924,7903600,30.92572594,buy,-1.1838270205813544,-0.9644671002839855,20.931688930999666,34.07947148404887,19.03204905234554,-74.96768854917681,34.9271406695658,37.787525640927555,37.787525640927555,-0.21935992029736884,-13.1477825530492,-0.14492429010785934,-0.46215304333111373,-0.6305276272506832,-0.4993537709835363,-0.4172868348881873
2/24/2006,35.74499893,35.00500107,35.58000183,35.07500076,5608400,31.0585537,buy,-1.1768783403916885,-1.006949348305526,20.102371113506667,32.72923581956748,19.379774794123268,-73.0271771788488,37.1476209921571,38.72611867819932,38.72611867819932,-0.1699289920861624,-12.626864706060811,-0.1078006446016323,-0.44946968957362055,-0.6275828122456966,-0.460543543576976,-0.3897063489612783
2/27/2006,34.97499847,34.07500076,34.82500076,34.14500046,5900000,30.23505592,buy,-1.2322105568767086,-1.0520015900197626,19.108099123790513,35.71025547677396,20.158773873265456,-81.62293066721394,29.793880110311036,35.18211688707248,35.18211688707248,-0.18020896685694598,-16.602156352983446,-0.1155211174516041,-0.5462604417788355,-0.6458404861551482,-0.6324586133442787,-0.49384657549570177
2/28/2006,33.81999969,32.80500031,33.74499893,33.70000076,8911800,29.84100151,buy,-1.2970182745572174,-1.1010049269272535,17.83511397266228,39.64523595147073,21.429119581411634,-81.52734314481752,26.829011772553102,33.59773010494186,33.59773010494186,-0.19601334762996392,-21.81012197880845,-0.12739053302794234,-0.6730644489194757,-0.6545766762535855,-0.6305468628963504,-0.5404036621265093
3/1/2006,34.36999893,33.65999985,33.77999878,34.17499924,4872600,30.26161385,buy,-1.2951211002663996,-1.1398281615950827,20.018862671167838,38.19335410846025,22.12854638903938,-71.72345541741677,34.89689063792065,36.866013028602005,36.866013028602005,-0.15529293867131688,-18.17449143729241,-0.09680866694219292,-0.584543795315104,-0.6452515530731682,-0.4344691083483354,-0.44436541381051853
3/2/2006,35.27500153,33.88499832,34.17499924,34.65999985,7709600,30.69106102,buy,-1.240185987984269,-1.15989972687292,23.250728811485935,35.455755850227575,22.03292971257944,-58.26772397367704,42.455180375601095,40.10749737148617,40.10749737148617,-0.08028626111134884,-12.20502703874164,-0.04047710674088467,-0.43919874878367293,-0.635730069065835,-0.16535447947354087,-0.3491146397784852
3/3/2006,35.52999878,34.625,34.625,35.17499924,7149400,31.14710999,buy,-1.141929911774838,-1.1563057638533036,23.486439866277504,33.759115282548194,21.740929810058997,-46.68168514540437,49.69086857072864,43.42892111880705,43.42892111880705,0.01437585207846559,-10.27267541627069,0.030616090577071153,-0.3921496807715894,-0.6256196519765217,0.06636629709191255,-0.25151485234924953
3/6/2006,34.95000076,32.90999985,34.75,33.31000137,9467600,29.49566841,buy,-1.2007099680576374,-1.1651866046941703,20.803317523632224,38.5524934930376,22.323935762406673,-88.6388954956259,32.451358797664554,35.70647169658244,35.70647169658244,-0.035523363363467064,-17.74917596940538,-0.006859248287498065,-0.5741881767296937,-0.662233105705818,-0.772777909912518,-0.4784384487889093
3/7/2006,33.39500046,32.06000137,33.31000137,32.625,7453000,28.88909912,buy,-1.287723398158839,-1.1896939633871042,19.396782517580608,40.250738616579255,23.22665341027789,-89.11370367741314,28.251373414450185,33.3600780531021,33.3600780531021,-0.09802943477173476,-20.853956098998648,-0.05380259572035839,-0.6497836376080854,-0.6756809848527254,-0.7822740735482628,-0.5473870498259534
3/8/2006,33.72499847,32.32500076,32.54999924,33.375,11232800,29.55322075,buy,-1.2813923431309462,-1.2080336393358726,19.69292555146702,37.39534166123132,23.782524715645486,-74.66283281080561,38.43023083458862,38.15224953423128,38.15224953423128,-0.07335870379507359,-17.7024161097643,-0.03527436846871179,-0.5730496635362847,-0.6609570590302405,-0.49325665621611225,-0.406569450668387
3/9/2006,34.09999847,32.47000122,33.875,32.65000153,8028400,28.91123772,buy,-1.319663988871099,-1.230359709242918,19.963560354623716,34.34079210111788,23.974864692081074,-88.63197850208304,33.129634838627894,35.49503858563607,35.49503858563607,-0.0893042796281811,-14.37723174649416,-0.04724982444420245,-0.49208778090533745,-0.6751901572885006,-0.7726395700416608,-0.48465139487882436
3/10/2006,33.40499878,32.09999847,32.58499908,32.74000168,6168600,28.99093246,buy,-1.3274304915008912,-1.2497738656945128,18.650093520944957,33.9468158980385,24.33972650367453,-86.89787110791593,34.43926437670751,36.0901041509517,36.0901041509517,-0.07765662580637844,-15.296722377093545,-0.03850219644878439,-0.5144756200089808,-0.6734232832450172,-0.7379574221583187,-0.46716543792192866
3/13/2006,33.97499847,32.89500046,32.90000153,33.84500122,4989800,29.96939659,buy,-1.2302398337721385,-1.245867059310038,20.37842999573151,31.813604530754525,24.16616089339195,-56.779635974867446,48.801903157506885,43.03810233751061,43.03810233751061,0.015627225537899525,-11.435174535023016,0.03155589782700652,-0.420454312012681,-0.6517300415638974,-0.13559271949734897,-0.2629990328934071
3/14/2006,34.82500076,33.11999893,33.84500122,34.65499878,7091200,30.68663979,buy,-1.0754582899246046,-1.2117853054329515,22.896932492009174,29.095281231332766,23.291555581613814,-32.50977482452974,56.88044679760803,47.54029167392564,47.54029167392564,0.13632701550834692,-6.198348739323592,0.12220392685841586,-0.2929476149063681,-0.6358282495774523,0.34980450350940506,-0.13070253728524606
3/15/2006,35.24000168,33.84999847,34.17499924,35.19499969,6449800,31.16479874,buy,-0.898857767993654,-1.149199797945092,23.382563382302113,27.064931732861186,22.149259305441074,-14.92536239291291,61.59387909470713,50.357312483492194,50.357312483492194,0.25034202995143806,-3.6823683505590736,0.20783155174313506,-0.23168830213352942,-0.6252270051202331,0.7014927521417418,-0.04792459230932977
3/16/2006,36.56499863,35.0,35.06999969,36.47499847,8534000,32.29824448,buy,-0.6481439775578437,-1.0489886338676424,28.163231926898018,24.95356495236871,20.998787864115013,-1.9977850108613697,70.50879723961903,56.34183383073873,56.34183383073873,0.4008446563097987,3.209666974529309,0.32086212492620647,-0.06388041718083082,-0.6000981956674449,0.9600442997827727,0.12793011813769484
3/17/2006,36.70999908,36.08499908,36.69499969,36.27999878,6091800,32.1255722,buy,-0.45988506883966807,-0.9311679208620475,28.002117741496058,24.14352188517114,20.027421015414927,-9.247322833627871,67.71513548851834,55.249114796309975,55.249114796309975,0.4712828520223794,3.858595856324918,0.3737626611362317,-0.04808023943907713,-0.6039264102954018,0.8150535433274424,0.09582065135672457
